0.000000	-0.080003	0.007012	100.000000
1.000000	-0.079441	-0.006663	100.000000
2.000000	-0.078305	0.012157	100.000000
3.000000	-0.076683	-0.027339	100.000000
4.000000	-0.074664	-0.008523	100.000000
5.000000	-0.072306	0.005166	100.000000
6.000000	-0.069670	0.004923	100.000000
7.000000	-0.066813	-0.011828	100.000000
8.000000	-0.063774	-0.006930	100.000000
9.000000	-0.060600	0.000176	100.000000
10.000000	-0.057346	-0.004961	100.000000
11.000000	-0.054056	0.005438	100.000000
12.000000	-0.050759	-0.011944	100.000000
13.000000	-0.047484	0.008509	100.000000
14.000000	-0.044256	-0.006767	100.000000
15.000000	-0.041100	-0.020613	100.000000
16.000000	-0.038036	-0.015613	100.000000
17.000000	-0.035084	-0.008734	100.000000
18.000000	-0.032251	0.015308	100.000000
19.000000	-0.029544	-0.000301	100.000000
20.000000	-0.026970	-0.017346	100.000000
21.000000	-0.024542	0.003499	100.000000
22.000000	-0.022262	0.013468	100.000000
23.000000	-0.020106	0.005009	100.000000
24.000000	-0.018058	0.006627	100.000000
25.000000	-0.016111	0.006706	100.000000
26.000000	-0.014260	0.010366	100.000000
27.000000	-0.012513	-0.000235	100.000000
28.000000	-0.010878	-0.006762	100.000000
29.000000	-0.009346	0.019318	100.000000
30.000000	-0.007922	-0.016953	100.000000
31.000000	-0.006614	-0.003509	100.000000
32.000000	-0.005419	0.011866	100.000000
33.000000	-0.004326	0.001627	100.000000
34.000000	-0.003326	0.001520	100.000000
35.000000	-0.002417	0.017083	100.000000
36.000000	-0.001605	0.001702	100.000000
37.000000	-0.000888	0.011734	100.000000
38.000000	-0.000257	-0.006692	100.000000
39.000000	0.000287	0.003467	100.000000
40.000000	0.000740	-0.001726	100.000000
41.000000	0.001096	0.005307	100.000000
42.000000	0.001353	-0.001561	100.000000
43.000000	0.001512	-0.006644	100.000000
44.000000	0.001588	0.008374	100.000000
45.000000	0.001599	0.006927	100.000000
46.000000	0.001539	0.006845	100.000000
47.000000	0.001414	5.246799E-5	100.000000
48.000000	0.001240	-0.005214	100.000000
49.000000	0.001019	-0.006597	100.000000
50.000000	0.000742	-0.013800	100.000000
51.000000	0.000419	0.003331	100.000000
52.000000	8.115920E-5	-0.001809	100.000000
53.000000	-0.000264	-0.007017	100.000000
54.000000	-0.000618	-0.003634	100.000000
55.000000	-0.000975	0.001576	100.000000
56.000000	-0.001332	-0.010466	100.000000
57.000000	-0.001694	-0.017322	100.000000
58.000000	-0.002071	-0.000113	100.000000
59.000000	-0.002457	-0.014078	100.000000
60.000000	-0.002833	0.006539	100.000000
61.000000	-0.003195	-0.001859	100.000000
62.000000	-0.003547	-0.003571	100.000000
63.000000	-0.003887	0.003020	100.000000
64.000000	-0.004205	-0.008759	100.000000
65.000000	-0.004491	0.006668	100.000000
66.000000	-0.004751	0.004969	100.000000
67.000000	-0.004991	0.001564	100.000000
68.000000	-0.005212	-0.001855	100.000000
69.000000	-0.005403	-0.003864	100.000000
70.000000	-0.005553	0.008254	100.000000
71.000000	-0.005669	-0.003562	100.000000
72.000000	-0.005742	0.015163	100.000000
73.000000	-0.005765	0.003412	100.000000
74.000000	-0.005764	-0.001929	100.000000
75.000000	-0.005755	0.001751	100.000000
76.000000	-0.005753	0.003371	100.000000
77.000000	-0.005768	0.011876	100.000000
78.000000	-0.005782	-0.001852	100.000000
79.000000	-0.005785	0.023962	100.000000
80.000000	-0.005799	0.001627	100.000000
81.000000	-0.005842	-0.003534	100.000000
82.000000	-0.005912	-0.013792	100.000000
83.000000	-0.006001	-0.001846	100.000000
84.000000	-0.006103	0.006526	100.000000
85.000000	-0.006218	0.004872	100.000000
86.000000	-0.006347	0.001559	100.000000
87.000000	-0.006491	-0.006955	100.000000
88.000000	-0.006649	-0.002025	100.000000
89.000000	-0.006814	-0.008772	100.000000
90.000000	-0.006972	0.016868	100.000000
91.000000	-0.007120	0.010130	100.000000
92.000000	-0.007267	0.008245	100.000000
93.000000	-0.007415	0.001626	100.000000
94.000000	-0.007561	0.009836	100.000000
95.000000	-0.007688	0.015110	100.000000
96.000000	-0.007781	0.001366	100.000000
97.000000	-0.007849	0.009788	100.000000
98.000000	-0.007916	0.001403	100.000000
99.000000	-0.007998	-0.013924	100.000000
100.000000	-0.008094	0.001232	100.000000
101.000000	-0.008185	0.011584	100.000000
102.000000	-0.008268	0.003097	100.000000
103.000000	-0.008358	0.004871	100.000000
104.000000	-0.008459	0.003075	100.000000
105.000000	-0.008556	0.025508	100.000000
106.000000	-0.008634	-0.007161	100.000000
107.000000	-0.008691	0.018467	100.000000
108.000000	-0.008733	0.001337	100.000000
109.000000	-0.008758	0.006677	100.000000
110.000000	-0.008747	0.001472	100.000000
111.000000	-0.008690	0.016969	100.000000
112.000000	-0.008610	0.015298	100.000000
113.000000	-0.008523	0.015168	100.000000
114.000000	-0.008434	-0.003644	100.000000
115.000000	-0.008350	0.003332	100.000000
116.000000	-0.008273	0.003251	100.000000
117.000000	-0.008195	0.003532	100.000000
118.000000	-0.008112	-0.008845	100.000000
119.000000	-0.008032	0.004851	100.000000
120.000000	-0.007964	0.006627	100.000000
121.000000	-0.007912	-0.012002	100.000000
122.000000	-0.007876	0.010239	100.000000
123.000000	-0.007840	0.008381	100.000000
124.000000	-0.007799	0.017092	100.000000
125.000000	-0.007754	0.003079	100.000000
126.000000	-0.007707	0.005090	100.000000
127.000000	-0.007678	-0.008729	100.000000
128.000000	-0.007682	-0.007155	100.000000
129.000000	-0.007709	0.004861	100.000000
130.000000	-0.007750	0.001443	100.000000
131.000000	-0.007807	0.010019	100.000000
132.000000	-0.007882	-0.007004	100.000000
133.000000	-0.007979	-0.002144	100.000000
134.000000	-0.008091	0.006313	100.000000
135.000000	-0.008213	-0.007215	100.000000
136.000000	-0.008349	0.013344	100.000000
137.000000	-0.008491	-0.002037	100.000000
138.000000	-0.008625	-0.010473	100.000000
139.000000	-0.008745	0.009731	100.000000
140.000000	-0.008843	0.013593	100.000000
141.000000	-0.008904	0.006346	100.000000
142.000000	-0.008919	-0.005336	100.000000
143.000000	-0.008899	0.006755	100.000000
144.000000	-0.008862	0.011652	100.000000
145.000000	-0.008813	0.006699	100.000000
146.000000	-0.008751	0.004933	100.000000
147.000000	-0.008668	0.010160	100.000000
148.000000	-0.008560	0.010028	100.000000
149.000000	-0.008427	-0.007044	100.000000
150.000000	-0.008279	0.001659	100.000000
151.000000	-0.008122	-0.001997	100.000000
152.000000	-0.007958	0.004897	100.000000
153.000000	-0.007792	0.001737	100.000000
154.000000	-0.007634	0.013656	100.000000
155.000000	-0.007500	0.003290	100.000000
156.000000	-0.007398	0.004973	100.000000
157.000000	-0.007324	0.004881	100.000000
158.000000	-0.007283	0.005025	100.000000
159.000000	-0.007281	-0.003456	100.000000
160.000000	-0.007299	0.010071	100.000000
161.000000	-0.007311	0.010028	100.000000
162.000000	-0.007314	-0.000179	100.000000
163.000000	-0.007320	0.008197	100.000000
164.000000	-0.007331	0.014949	100.000000
165.000000	-0.007349	0.003421	100.000000
166.000000	-0.007376	0.008142	100.000000
167.000000	-0.007414	-0.000318	100.000000
168.000000	-0.007471	-0.000228	100.000000
169.000000	-0.007538	0.008361	100.000000
170.000000	-0.007596	0.023641	100.000000
171.000000	-0.007639	0.013392	100.000000
172.000000	-0.007660	0.004823	100.000000
173.000000	-0.007660	0.013405	100.000000
174.000000	-0.007646	0.004715	100.000000
175.000000	-0.007626	0.004698	100.000000
176.000000	-0.007609	0.008118	100.000000
177.000000	-0.007599	-0.002174	100.000000
178.000000	-0.007587	0.015006	100.000000
179.000000	-0.007567	0.018792	100.000000
180.000000	-0.007553	0.001685	100.000000
181.000000	-0.007554	-0.002180	100.000000
182.000000	-0.007555	0.022169	100.000000
183.000000	-0.007556	0.026921	100.000000
184.000000	-0.007556	0.011548	100.000000
185.000000	-0.007552	0.009866	100.000000
186.000000	-0.007546	0.010077	100.000000
187.000000	-0.007525	0.013422	100.000000
188.000000	-0.007479	0.017004	100.000000
189.000000	-0.007422	0.004873	100.000000
190.000000	-0.007362	0.035785	100.000000
191.000000	-0.007293	0.006487	100.000000
192.000000	-0.007217	0.017104	100.000000
193.000000	-0.007139	0.001484	100.000000
194.000000	-0.007058	0.019003	100.000000
195.000000	-0.006977	0.010157	100.000000
196.000000	-0.006889	0.023859	100.000000
197.000000	-0.006800	-0.003464	100.000000
198.000000	-0.006727	0.018764	100.000000
199.000000	-0.006667	-0.013929	100.000000
200.000000	-0.006614	0.013699	100.000000
201.000000	-0.006580	0.018684	100.000000
202.000000	-0.006565	0.011951	100.000000
203.000000	-0.006575	0.013430	100.000000
204.000000	-0.006606	-0.005327	100.000000
205.000000	-0.006651	0.003170	100.000000
206.000000	-0.006713	0.011852	100.000000
207.000000	-0.006804	0.010261	100.000000
208.000000	-0.006924	0.008417	100.000000
209.000000	-0.007068	-0.007183	100.000000
210.000000	-0.007251	0.013530	100.000000
211.000000	-0.007469	0.010023	100.000000
212.000000	-0.007705	0.013240	100.000000
213.000000	-0.007959	-2.454338E-5	100.000000
214.000000	-0.008226	0.006498	100.000000
215.000000	-0.008493	0.008312	100.000000
216.000000	-0.008759	0.015226	100.000000
217.000000	-0.009020	0.016560	100.000000
218.000000	-0.009269	-0.000202	100.000000
219.000000	-0.009508	0.018413	100.000000
220.000000	-0.009743	0.006709	100.000000
221.000000	-0.009986	0.015069	100.000000
222.000000	-0.010237	0.016764	100.000000
223.000000	-0.010474	0.013165	100.000000
224.000000	-0.010676	0.015064	100.000000
225.000000	-0.010835	0.021670	100.000000
226.000000	-0.010961	0.023581	100.000000
227.000000	-0.011066	0.033770	100.000000
228.000000	-0.011151	0.015176	100.000000
229.000000	-0.011218	0.021730	100.000000
230.000000	-0.011271	0.004878	100.000000
231.000000	-0.011299	0.034007	100.000000
232.000000	-0.011295	0.023844	100.000000
233.000000	-0.011271	0.023648	100.000000
234.000000	-0.011239	0.016995	100.000000
235.000000	-0.011198	0.018674	100.000000
236.000000	-0.011154	0.027026	100.000000
237.000000	-0.011110	0.021914	100.000000
238.000000	-0.011065	0.023567	100.000000
239.000000	-0.011011	0.030605	100.000000
240.000000	-0.010943	0.008252	100.000000
241.000000	-0.010868	0.028984	100.000000
242.000000	-0.010805	0.016871	100.000000
243.000000	-0.010761	0.011940	100.000000
244.000000	-0.010734	0.015330	100.000000
245.000000	-0.010716	0.022130	100.000000
246.000000	-0.010708	0.018670	100.000000
247.000000	-0.010710	0.013427	100.000000
248.000000	-0.010720	0.030635	100.000000
249.000000	-0.010743	0.022158	100.000000
250.000000	-0.010784	0.023743	100.000000
251.000000	-0.010845	0.020396	100.000000
252.000000	-0.010926	0.011907	100.000000
253.000000	-0.011027	0.008351	100.000000
254.000000	-0.011159	0.018597	100.000000
255.000000	-0.011317	0.009823	100.000000
256.000000	-0.011492	0.011703	100.000000
257.000000	-0.011690	0.032295	100.000000
258.000000	-0.011906	0.015299	100.000000
259.000000	-0.012132	-0.001888	100.000000
260.000000	-0.012360	0.018471	100.000000
261.000000	-0.012587	0.001340	100.000000
262.000000	-0.012825	0.028693	100.000000
263.000000	-0.013076	0.008191	100.000000
264.000000	-0.013322	0.011486	100.000000
265.000000	-0.013562	0.006418	100.000000
266.000000	-0.013799	0.006407	100.000000
267.000000	-0.014036	0.015036	100.000000
268.000000	-0.014275	0.018278	100.000000
269.000000	-0.014505	0.013477	100.000000
270.000000	-0.014720	0.009846	100.000000
271.000000	-0.014908	0.030305	100.000000
272.000000	-0.015062	0.025005	100.000000
273.000000	-0.015187	0.030643	100.000000
274.000000	-0.015287	0.020010	100.000000
275.000000	-0.015367	0.004830	100.000000
276.000000	-0.015428	0.028657	100.000000
277.000000	-0.015462	0.028698	100.000000
278.000000	-0.015468	0.030326	100.000000
279.000000	-0.015449	0.032044	100.000000
280.000000	-0.015399	0.043893	100.000000
281.000000	-0.015328	0.018326	100.000000
282.000000	-0.015252	0.037278	100.000000
283.000000	-0.015176	0.013230	100.000000
284.000000	-0.015104	0.032204	100.000000
285.000000	-0.015039	0.026926	100.000000
286.000000	-0.014967	0.025251	100.000000
287.000000	-0.014869	0.035448	100.000000
288.000000	-0.014753	0.028674	100.000000
289.000000	-0.014638	0.027080	100.000000
290.000000	-0.014535	0.021838	100.000000
291.000000	-0.014447	0.016857	100.000000
292.000000	-0.014371	0.035881	100.000000
293.000000	-0.014292	0.025293	100.000000
294.000000	-0.014200	0.018446	100.000000
295.000000	-0.014107	0.011747	100.000000
296.000000	-0.014027	0.025377	100.000000
297.000000	-0.013974	0.020176	100.000000
298.000000	-0.013955	0.040960	100.000000
299.000000	-0.013957	0.027140	100.000000
300.000000	-0.013973	0.015478	100.000000
301.000000	-0.014031	0.025437	100.000000
302.000000	-0.014126	0.035381	100.000000
303.000000	-0.014220	0.035654	100.000000
304.000000	-0.014310	0.028815	100.000000
305.000000	-0.014416	0.016866	100.000000
306.000000	-0.014552	0.025431	100.000000
307.000000	-0.014718	0.021886	100.000000
308.000000	-0.014915	0.030381	100.000000
309.000000	-0.015144	0.033727	100.000000
310.000000	-0.015399	0.020293	100.000000
311.000000	-0.015666	0.040394	100.000000
312.000000	-0.015929	0.030180	100.000000
313.000000	-0.016182	0.040430	100.000000
314.000000	-0.016437	0.025184	100.000000
315.000000	-0.016696	0.018423	100.000000
316.000000	-0.016941	0.020152	100.000000
317.000000	-0.017165	0.039114	100.000000
318.000000	-0.017378	0.023650	100.000000
319.000000	-0.017588	0.032084	100.000000
320.000000	-0.017781	0.019962	100.000000
321.000000	-0.017929	0.031839	100.000000
322.000000	-0.018019	0.025229	100.000000
323.000000	-0.018055	0.037395	100.000000
324.000000	-0.018053	0.040700	100.000000
325.000000	-0.018030	0.021684	100.000000
326.000000	-0.017991	0.032014	100.000000
327.000000	-0.017929	0.025200	100.000000
328.000000	-0.017838	0.037219	100.000000
329.000000	-0.017722	0.038893	100.000000
330.000000	-0.017594	0.026974	100.000000
331.000000	-0.017464	0.037547	100.000000
332.000000	-0.017340	0.035555	100.000000
333.000000	-0.017220	0.023818	100.000000
334.000000	-0.017099	0.030610	100.000000
335.000000	-0.016977	0.022071	100.000000
336.000000	-0.016869	0.016683	100.000000
337.000000	-0.016783	0.013389	100.000000
338.000000	-0.016708	0.018615	100.000000
339.000000	-0.016646	0.023592	100.000000
340.000000	-0.016599	0.032134	100.000000
341.000000	-0.016562	0.033844	100.000000
342.000000	-0.016544	0.025357	100.000000
343.000000	-0.016556	0.015180	100.000000
344.000000	-0.016594	0.030551	100.000000
345.000000	-0.016643	0.028872	100.000000
346.000000	-0.016688	0.018521	100.000000
347.000000	-0.016729	0.022025	100.000000
348.000000	-0.016781	0.026955	100.000000
349.000000	-0.016851	0.021822	100.000000
350.000000	-0.016940	0.018524	100.000000
351.000000	-0.017041	0.035864	100.000000
352.000000	-0.017148	0.030168	100.000000
353.000000	-0.017258	0.023599	100.000000
354.000000	-0.017375	0.025030	100.000000
355.000000	-0.017488	0.033834	100.000000
356.000000	-0.017583	0.042272	100.000000
357.000000	-0.017668	0.023589	100.000000
358.000000	-0.017747	0.033697	100.000000
359.000000	-0.017813	0.018280	100.000000
360.000000	-0.017855	0.038787	100.000000
361.000000	-0.017869	0.025223	100.000000
362.000000	-0.017858	0.035382	100.000000
363.000000	-0.017828	0.035559	100.000000
364.000000	-0.017780	0.023570	100.000000
365.000000	-0.017711	0.023603	100.000000
366.000000	-0.017625	0.039020	100.000000
367.000000	-0.017519	0.047449	100.000000
368.000000	-0.017390	0.035552	100.000000
369.000000	-0.017243	0.028651	100.000000
370.000000	-0.017080	0.030326	100.000000
371.000000	-0.016911	0.021798	100.000000
372.000000	-0.016743	0.026775	100.000000
373.000000	-0.016583	0.016771	100.000000
374.000000	-0.016429	0.030561	100.000000
375.000000	-0.016267	0.028698	100.000000
376.000000	-0.016087	0.038924	100.000000
377.000000	-0.015912	0.011813	100.000000
378.000000	-0.015770	0.032180	100.000000
379.000000	-0.015661	0.030627	100.000000
380.000000	-0.015577	0.021961	100.000000
381.000000	-0.015512	0.014982	100.000000
382.000000	-0.015473	0.001209	100.000000
383.000000	-0.015472	0.021805	100.000000
384.000000	-0.015507	0.016622	100.000000
385.000000	-0.015582	0.025114	100.000000
386.000000	-0.015702	0.020417	100.000000
387.000000	-0.015861	0.012900	100.000000
388.000000	-0.016041	0.016651	100.000000
389.000000	-0.016225	0.030218	100.000000
390.000000	-0.016398	0.031786	100.000000
391.000000	-0.016552	0.037030	100.000000
392.000000	-0.016684	0.018341	100.000000
393.000000	-0.016790	0.019648	100.000000
394.000000	-0.016875	0.014924	100.000000
395.000000	-0.016948	0.025103	100.000000
396.000000	-0.017007	0.018287	100.000000
397.000000	-0.017043	0.033618	100.000000
398.000000	-0.017052	0.028902	100.000000
399.000000	-0.017038	0.037428	100.000000
400.000000	-0.017010	0.031943	100.000000
401.000000	-0.016968	0.032148	100.000000
402.000000	-0.016903	0.016674	100.000000
403.000000	-0.016822	0.022049	100.000000
404.000000	-0.016733	0.030019	100.000000
405.000000	-0.016643	0.016728	100.000000
406.000000	-0.016565	0.023735	100.000000
407.000000	-0.016496	0.025251	100.000000
408.000000	-0.016422	0.023642	100.000000
409.000000	-0.016348	0.035592	100.000000
410.000000	-0.016282	0.021725	100.000000
411.000000	-0.016245	0.015229	100.000000
412.000000	-0.016247	0.029121	100.000000
413.000000	-0.016279	0.022067	100.000000
414.000000	-0.016335	0.027058	100.000000
415.000000	-0.016399	0.004715	100.000000
416.000000	-0.016451	0.018491	100.000000
417.000000	-0.016498	0.028706	100.000000
418.000000	-0.016565	0.028702	100.000000
419.000000	-0.016664	0.018501	100.000000
420.000000	-0.016787	0.018401	100.000000
421.000000	-0.016926	0.017028	100.000000
422.000000	-0.017083	0.023286	100.000000
423.000000	-0.017262	0.019922	100.000000
424.000000	-0.017460	0.012993	100.000000
425.000000	-0.017666	0.016755	100.000000
426.000000	-0.017877	0.016593	100.000000
427.000000	-0.018096	0.016641	100.000000
428.000000	-0.018322	0.012913	100.000000
429.000000	-0.018542	0.011431	100.000000
430.000000	-0.018741	0.021408	100.000000
431.000000	-0.018902	0.023304	100.000000
432.000000	-0.019024	0.009525	100.000000
433.000000	-0.019110	0.023188	100.000000
434.000000	-0.019150	0.043791	100.000000
435.000000	-0.019150	0.018192	100.000000
436.000000	-0.019135	0.023539	100.000000
437.000000	-0.019111	0.014765	100.000000
438.000000	-0.019079	0.037109	100.000000
439.000000	-0.019044	0.025123	100.000000
440.000000	-0.019011	0.021775	100.000000
441.000000	-0.018983	0.004744	100.000000
442.000000	-0.018970	0.030446	100.000000
443.000000	-0.018961	0.035355	100.000000
444.000000	-0.018928	0.030418	100.000000
445.000000	-0.018863	0.021643	100.000000
446.000000	-0.018785	0.020174	100.000000
447.000000	-0.018705	0.021915	100.000000
448.000000	-0.018625	0.023564	100.000000
449.000000	-0.018557	0.028832	100.000000
450.000000	-0.018506	0.019900	100.000000
451.000000	-0.018456	-0.000397	100.000000
452.000000	-0.018402	0.026986	100.000000
453.000000	-0.018357	0.018441	100.000000
454.000000	-0.018323	0.032057	100.000000
455.000000	-0.018294	0.013196	100.000000
456.000000	-0.018266	0.014931	100.000000
457.000000	-0.018245	0.021686	100.000000
458.000000	-0.018245	0.020028	100.000000
459.000000	-0.018263	0.021638	100.000000
460.000000	-0.018284	0.011606	100.000000
461.000000	-0.018314	0.018411	100.000000
462.000000	-0.018371	0.023498	100.000000
463.000000	-0.018456	0.025360	100.000000
464.000000	-0.018553	0.021964	100.000000
465.000000	-0.018658	0.025265	100.000000
466.000000	-0.018780	0.021773	100.000000
467.000000	-0.018916	0.011451	100.000000
468.000000	-0.019059	-0.000640	100.000000
469.000000	-0.019209	0.011325	100.000000
470.000000	-0.019360	0.001196	100.000000
471.000000	-0.019504	0.013027	100.000000
472.000000	-0.019635	0.018149	100.000000
473.000000	-0.019750	0.008259	100.000000
474.000000	-0.019869	0.008130	100.000000
475.000000	-0.020002	0.033757	100.000000
476.000000	-0.020143	0.016635	100.000000
477.000000	-0.020301	0.008063	100.000000
478.000000	-0.020478	0.020175	100.000000
479.000000	-0.020662	0.018248	100.000000
480.000000	-0.020842	0.011448	100.000000
481.000000	-0.021011	0.002880	100.000000
482.000000	-0.021162	0.020050	100.000000
483.000000	-0.021301	0.019710	100.000000
484.000000	-0.021418	0.016726	100.000000
485.000000	-0.021505	0.021472	100.000000
486.000000	-0.021568	0.021688	100.000000
487.000000	-0.021614	0.018092	100.000000
488.000000	-0.021651	0.009880	100.000000
489.000000	-0.021683	0.007719	100.000000
490.000000	-0.021700	0.018339	100.000000
491.000000	-0.021700	0.014701	100.000000
492.000000	-0.021681	0.026972	100.000000
493.000000	-0.021640	0.017992	100.000000
494.000000	-0.021579	0.025105	100.000000
495.000000	-0.021494	0.016246	100.000000
496.000000	-0.021388	0.027004	100.000000
497.000000	-0.021274	0.021535	100.000000
498.000000	-0.021151	0.020041	100.000000
499.000000	-0.021012	0.021581	100.000000
500.000000	-0.020852	0.019879	100.000000
501.000000	-0.020676	0.020087	100.000000
502.000000	-0.020482	0.020029	100.000000
503.000000	-0.020262	0.029009	100.000000
504.000000	-0.020026	0.013118	100.000000
505.000000	-0.019790	0.023751	100.000000
506.000000	-0.019568	0.018282	100.000000
507.000000	-0.019361	0.022066	100.000000
508.000000	-0.019163	0.020106	100.000000
509.000000	-0.018970	0.021893	100.000000
510.000000	-0.018788	0.013077	100.000000
511.000000	-0.018628	0.020104	100.000000
512.000000	-0.018517	0.020129	100.000000
513.000000	-0.018449	0.034100	100.000000
514.000000	-0.018397	0.001043	100.000000
515.000000	-0.018352	0.008005	100.000000
516.000000	-0.018310	0.006382	100.000000
517.000000	-0.018276	0.001286	100.000000
518.000000	-0.018252	0.010117	100.000000
519.000000	-0.018232	0.020092	100.000000
520.000000	-0.018220	0.017019	100.000000
521.000000	-0.018225	0.003189	100.000000
522.000000	-0.018265	0.016698	100.000000
523.000000	-0.018355	0.008004	100.000000
524.000000	-0.018490	0.011525	100.000000
525.000000	-0.018650	0.004626	100.000000
526.000000	-0.018817	0.030477	100.000000
527.000000	-0.018992	0.002930	100.000000
528.000000	-0.019186	-0.000626	100.000000
529.000000	-0.019388	0.011481	100.000000
530.000000	-0.019579	0.018264	100.000000
531.000000	-0.019762	0.021789	100.000000
532.000000	-0.019938	0.011386	100.000000
533.000000	-0.020089	0.025137	100.000000
534.000000	-0.020196	0.018202	100.000000
535.000000	-0.020280	0.016723	100.000000
536.000000	-0.020370	0.033717	100.000000
537.000000	-0.020454	0.018332	100.000000
538.000000	-0.020518	0.028430	100.000000
539.000000	-0.020562	0.027023	100.000000
540.000000	-0.020579	0.021650	100.000000
541.000000	-0.020558	0.027123	100.000000
542.000000	-0.020505	0.009528	100.000000
543.000000	-0.020441	0.026691	100.000000
544.000000	-0.020372	0.019798	100.000000
545.000000	-0.020287	0.023681	100.000000
546.000000	-0.020179	0.028650	100.000000
547.000000	-0.020049	0.009895	100.000000
548.000000	-0.019901	0.018430	100.000000
549.000000	-0.019740	0.026983	100.000000
550.000000	-0.019565	0.028769	100.000000
551.000000	-0.019389	0.021703	100.000000
552.000000	-0.019223	0.023628	100.000000
553.000000	-0.019066	0.032227	100.000000
554.000000	-0.018907	0.035628	100.000000
555.000000	-0.018743	0.027147	100.000000
556.000000	-0.018579	0.028465	100.000000
557.000000	-0.018417	0.018359	100.000000
558.000000	-0.018258	0.026978	100.000000
559.000000	-0.018112	0.022271	100.000000
560.000000	-0.018004	0.028774	100.000000
561.000000	-0.017951	0.016837	100.000000
562.000000	-0.017940	0.008080	100.000000
563.000000	-0.017962	-0.005497	100.000000
564.000000	-0.018015	0.023836	100.000000
565.000000	-0.018097	0.008044	100.000000
566.000000	-0.018198	0.034124	100.000000
567.000000	-0.018306	0.026767	100.000000
568.000000	-0.018396	0.021734	100.000000
569.000000	-0.018458	0.011664	100.000000
570.000000	-0.018517	0.026932	100.000000
571.000000	-0.018594	0.011662	100.000000
572.000000	-0.018698	0.020045	100.000000
573.000000	-0.018830	0.018493	100.000000
574.000000	-0.018988	0.025434	100.000000
575.000000	-0.019161	0.023474	100.000000
576.000000	-0.019340	0.004509	100.000000
577.000000	-0.019506	0.009637	100.000000
578.000000	-0.019637	0.030196	100.000000
579.000000	-0.019727	0.014619	100.000000
580.000000	-0.019782	0.009735	100.000000
581.000000	-0.019819	0.031829	100.000000
582.000000	-0.019856	0.009764	100.000000
583.000000	-0.019894	0.016382	100.000000
584.000000	-0.019920	0.011530	100.000000
585.000000	-0.019926	0.001027	100.000000
586.000000	-0.019922	0.025063	100.000000
587.000000	-0.019903	0.021492	100.000000
588.000000	-0.019858	0.018232	100.000000
589.000000	-0.019787	0.018098	100.000000
590.000000	-0.019696	0.008027	100.000000
591.000000	-0.019589	0.028495	100.000000
592.000000	-0.019462	0.011337	100.000000
593.000000	-0.019317	0.013185	100.000000
594.000000	-0.019154	0.004834	100.000000
595.000000	-0.018972	0.032191	100.000000
596.000000	-0.018760	0.021956	100.000000
597.000000	-0.018535	0.022060	100.000000
598.000000	-0.018312	0.008079	100.000000
599.000000	-0.018082	0.039168	100.000000
600.000000	-0.017844	0.015163	100.000000
601.000000	-0.017610	0.008488	100.000000
602.000000	-0.017383	0.015051	100.000000
603.000000	-0.017162	0.027119	100.000000
604.000000	-0.016952	0.030386	100.000000
605.000000	-0.016761	0.009838	100.000000
606.000000	-0.016590	0.007990	100.000000
607.000000	-0.016438	0.016612	100.000000
608.000000	-0.016333	0.013353	100.000000
609.000000	-0.016301	0.001413	100.000000
610.000000	-0.016316	0.022060	100.000000
611.000000	-0.016347	0.018360	100.000000
612.000000	-0.016394	0.023648	100.000000
613.000000	-0.016458	0.009920	100.000000
614.000000	-0.016533	0.013257	100.000000
615.000000	-0.016613	0.014979	100.000000
616.000000	-0.016693	0.002995	100.000000
617.000000	-0.016782	0.009679	100.000000
618.000000	-0.016889	0.015039	100.000000
619.000000	-0.017013	0.018479	100.000000
620.000000	-0.017143	0.018719	100.000000
621.000000	-0.017285	0.014937	100.000000
622.000000	-0.017428	0.016822	100.000000
623.000000	-0.017553	-0.008992	100.000000
624.000000	-0.017672	-0.017591	100.000000
625.000000	-0.017790	0.013295	100.000000
626.000000	-0.017907	0.018473	100.000000
627.000000	-0.018024	0.004519	100.000000
628.000000	-0.018132	0.006441	100.000000
629.000000	-0.018222	0.016625	100.000000
630.000000	-0.018289	0.016750	100.000000
631.000000	-0.018345	0.004771	100.000000
632.000000	-0.018413	-0.000656	100.000000
633.000000	-0.018494	0.020426	100.000000
634.000000	-0.018574	0.014814	100.000000
635.000000	-0.018643	0.025362	100.000000
636.000000	-0.018700	0.010049	100.000000
637.000000	-0.018741	0.006271	100.000000
638.000000	-0.018763	0.015065	100.000000
639.000000	-0.018769	0.008161	100.000000
640.000000	-0.018766	0.026688	100.000000
641.000000	-0.018754	0.025258	100.000000
642.000000	-0.018729	0.014958	100.000000
643.000000	-0.018689	0.032225	100.000000
644.000000	-0.018634	0.006426	100.000000
645.000000	-0.018572	0.009666	100.000000
646.000000	-0.018499	0.006195	100.000000
647.000000	-0.018412	0.021651	100.000000
648.000000	-0.018316	0.021519	100.000000
649.000000	-0.018201	0.004584	100.000000
650.000000	-0.018056	0.020134	100.000000
651.000000	-0.017884	0.011596	100.000000
652.000000	-0.017709	0.006485	100.000000
653.000000	-0.017537	0.018494	100.000000
654.000000	-0.017349	0.025134	100.000000
655.000000	-0.017145	0.026900	100.000000
656.000000	-0.016932	0.027259	100.000000
657.000000	-0.016713	0.006346	100.000000
658.000000	-0.016479	0.025208	100.000000
659.000000	-0.016223	0.008062	100.000000
660.000000	-0.015956	0.022080	100.000000
661.000000	-0.015689	0.021698	100.000000
662.000000	-0.015429	0.009929	100.000000
663.000000	-0.015175	0.011777	100.000000
664.000000	-0.014934	0.013335	100.000000
665.000000	-0.014708	0.023650	100.000000
666.000000	-0.014481	0.013199	100.000000
667.000000	-0.014243	0.009846	100.000000
668.000000	-0.014006	0.013443	100.000000
669.000000	-0.013782	0.012051	100.000000
670.000000	-0.013576	0.004741	100.000000
671.000000	-0.013385	0.018549	100.000000
672.000000	-0.013208	0.010028	100.000000
673.000000	-0.013048	-0.000229	100.000000
674.000000	-0.012903	0.013465	100.000000
675.000000	-0.012776	0.013473	100.000000
676.000000	-0.012678	0.023656	100.000000
677.000000	-0.012615	0.004952	100.000000
678.000000	-0.012576	-0.001789	100.000000
679.000000	-0.012553	0.023861	100.000000
680.000000	-0.012544	0.015168	100.000000
681.000000	-0.012554	-5.395037E-5	100.000000
682.000000	-0.012588	0.004917	100.000000
683.000000	-0.012635	0.025591	100.000000
684.000000	-0.012697	0.001501	100.000000
685.000000	-0.012778	0.008267	100.000000
686.000000	-0.012873	-0.000208	100.000000
687.000000	-0.012984	-0.000145	100.000000
688.000000	-0.013106	0.001615	100.000000
689.000000	-0.013226	-0.003838	100.000000
690.000000	-0.013345	-0.003836	100.000000
691.000000	-0.013471	0.006537	100.000000
692.000000	-0.013591	0.013202	100.000000
693.000000	-0.013695	-0.010830	100.000000
694.000000	-0.013797	0.004685	100.000000
695.000000	-0.013920	-0.008876	100.000000
696.000000	-0.014074	-0.010613	100.000000
697.000000	-0.014226	0.009936	100.000000
698.000000	-0.014347	0.001464	100.000000
699.000000	-0.014444	0.002835	100.000000
700.000000	-0.014525	0.025361	100.000000
701.000000	-0.014588	-0.000457	100.000000
702.000000	-0.014631	-0.002047	100.000000
703.000000	-0.014649	-0.000536	100.000000
704.000000	-0.014637	0.008348	100.000000
705.000000	-0.014594	-0.000382	100.000000
706.000000	-0.014526	-0.014020	100.000000
707.000000	-0.014440	-0.000497	100.000000
708.000000	-0.014339	0.003090	100.000000
709.000000	-0.014223	0.011588	100.000000
710.000000	-0.014088	0.004980	100.000000
711.000000	-0.013923	0.009867	100.000000
712.000000	-0.013720	0.006555	100.000000
713.000000	-0.013491	0.006740	100.000000
714.000000	-0.013262	0.010048	100.000000
715.000000	-0.013036	0.020235	100.000000
716.000000	-0.012806	-0.008848	100.000000
717.000000	-0.012581	0.015075	100.000000
718.000000	-0.012359	0.015257	100.000000
719.000000	-0.012127	0.027209	100.000000
720.000000	-0.011888	0.006574	100.000000
721.000000	-0.011641	0.006442	100.000000
722.000000	-0.011378	0.003108	100.000000
723.000000	-0.011116	0.002872	100.000000
724.000000	-0.010867	0.023803	100.000000
725.000000	-0.010628	0.001512	100.000000
726.000000	-0.010398	-0.005140	100.000000
727.000000	-0.010167	0.017013	100.000000
728.000000	-0.009935	-0.001896	100.000000
729.000000	-0.009723	0.020729	100.000000
730.000000	-0.009532	0.015118	100.000000
731.000000	-0.009343	0.010259	100.000000
732.000000	-0.009145	0.003282	100.000000
733.000000	-0.008945	0.003278	100.000000
734.000000	-0.008753	0.001472	100.000000
735.000000	-0.008592	0.001699	100.000000
736.000000	-0.008470	0.004724	100.000000
737.000000	-0.008355	0.004979	100.000000
738.000000	-0.008237	0.006862	100.000000
739.000000	-0.008134	-0.001715	100.000000
740.000000	-0.008055	0.006880	100.000000
741.000000	-0.007999	-0.003333	100.000000
742.000000	-0.007965	-0.001794	100.000000
743.000000	-0.007947	-0.003523	100.000000
744.000000	-0.007932	-0.017008	100.000000
745.000000	-0.007930	0.001502	100.000000
746.000000	-0.007948	-0.000180	100.000000
747.000000	-0.007971	0.005082	100.000000
748.000000	-0.008001	-0.012012	100.000000
749.000000	-0.008051	-0.003430	100.000000
750.000000	-0.008112	0.001818	100.000000
751.000000	-0.008178	-0.008610	100.000000
752.000000	-0.008256	-0.013665	100.000000
753.000000	-0.008348	-0.005184	100.000000
754.000000	-0.008447	-0.003632	100.000000
755.000000	-0.008545	-0.003436	100.000000
756.000000	-0.008634	-0.011855	100.000000
757.000000	-0.008708	-0.015417	100.000000
758.000000	-0.008762	-0.010522	100.000000
759.000000	-0.008788	-0.003462	100.000000
760.000000	-0.008794	-0.008490	100.000000
761.000000	-0.008792	-0.020628	100.000000
762.000000	-0.008789	-0.016922	100.000000
763.000000	-0.008786	-0.017294	100.000000
764.000000	-0.008794	-0.018934	100.000000
765.000000	-0.008820	-0.025854	100.000000
766.000000	-0.008838	-0.022202	100.000000
767.000000	-0.008814	-0.003401	100.000000
768.000000	-0.008741	-0.008793	100.000000
769.000000	-0.008634	-0.025752	100.000000
770.000000	-0.008517	-0.029019	100.000000
771.000000	-0.008385	-0.018932	100.000000
772.000000	-0.008239	-0.022290	100.000000
773.000000	-0.008081	-0.017078	100.000000
774.000000	-0.007901	-0.012140	100.000000
775.000000	-0.007695	-0.013612	100.000000
776.000000	-0.007471	-0.015613	100.000000
777.000000	-0.007233	-0.030701	100.000000
778.000000	-0.006978	-0.001810	100.000000
779.000000	-0.006701	-0.025648	100.000000
780.000000	-0.006411	-0.024105	100.000000
781.000000	-0.006117	-0.025641	100.000000
782.000000	-0.005826	-0.017449	100.000000
783.000000	-0.005533	-0.013772	100.000000
784.000000	-0.005235	-0.022598	100.000000
785.000000	-0.004921	-0.022289	100.000000
786.000000	-0.004582	-0.030890	100.000000
787.000000	-0.004228	-0.028942	100.000000
788.000000	-0.003861	-0.013734	100.000000
789.000000	-0.003475	-0.011973	100.000000
790.000000	-0.003069	-0.020617	100.000000
791.000000	-0.002641	-0.027468	100.000000
792.000000	-0.002183	-0.003344	100.000000
793.000000	-0.001703	-0.018697	100.000000
794.000000	-0.001217	-0.030815	100.000000
795.000000	-0.000726	-0.030801	100.000000
796.000000	-0.000228	-0.025467	100.000000
797.000000	0.000269	-0.016850	100.000000
798.000000	0.000764	-0.018843	100.000000
799.000000	0.001262	-0.018855	100.000000
800.000000	0.001773	-0.030664	100.000000
801.000000	0.002314	-0.032291	100.000000
802.000000	0.002878	-0.035936	100.000000
803.000000	0.003433	-0.020276	100.000000
804.000000	0.003964	-0.023739	100.000000
805.000000	0.004487	-0.028669	100.000000
806.000000	0.005014	-0.018430	100.000000
807.000000	0.005536	-0.035685	100.000000
808.000000	0.006047	-0.023829	100.000000
809.000000	0.006544	-0.040827	100.000000
810.000000	0.007020	-0.037388	100.000000
811.000000	0.007461	-0.045642	100.000000
812.000000	0.007855	-0.037320	100.000000
813.000000	0.008205	-0.063034	100.000000
814.000000	0.008517	-0.047528	100.000000
815.000000	0.008791	-0.057903	100.000000
816.000000	0.009041	-0.049274	100.000000
817.000000	0.009286	-0.038877	100.000000
818.000000	0.009528	-0.044448	100.000000
819.000000	0.009769	-0.056123	100.000000
820.000000	0.010005	-0.050961	100.000000
821.000000	0.010235	-0.047545	100.000000
822.000000	0.010466	-0.047545	100.000000
823.000000	0.010700	-0.057759	100.000000
824.000000	0.010934	-0.045808	100.000000
825.000000	0.011176	-0.052473	100.000000
826.000000	0.011438	-0.056048	100.000000
827.000000	0.011726	-0.061136	100.000000
828.000000	0.012032	-0.066244	100.000000
829.000000	0.012342	-0.061052	100.000000
830.000000	0.012655	-0.066264	100.000000
831.000000	0.012994	-0.064653	100.000000
832.000000	0.013370	-0.078080	100.000000
833.000000	0.013768	-0.071161	100.000000
834.000000	0.014160	-0.057516	100.000000
835.000000	0.014537	-0.076652	100.000000
836.000000	0.014921	-0.073057	100.000000
837.000000	0.015331	-0.074869	100.000000
838.000000	0.015771	-0.066174	100.000000
839.000000	0.016256	-0.064611	100.000000
840.000000	0.016791	-0.083265	100.000000
841.000000	0.017362	-0.076531	100.000000
842.000000	0.017961	-0.078232	100.000000
843.000000	0.018604	-0.064624	100.000000
844.000000	0.019293	-0.067661	100.000000
845.000000	0.020030	-0.061124	100.000000
846.000000	0.020824	-0.063996	100.000000
847.000000	0.021662	-0.081560	100.000000
848.000000	0.022534	-0.084836	100.000000
849.000000	0.023453	-0.088272	100.000000
850.000000	0.024429	-0.083139	100.000000
851.000000	0.025459	-0.083154	100.000000
852.000000	0.026538	-0.079430	100.000000
853.000000	0.027662	-0.065638	100.000000
854.000000	0.028814	-0.082679	100.000000
855.000000	0.029962	-0.087694	100.000000
856.000000	0.031123	-0.094746	100.000000
857.000000	0.032308	-0.099734	100.000000
858.000000	0.033500	-0.091227	100.000000
859.000000	0.034714	-0.086060	100.000000
860.000000	0.035955	-0.094115	100.000000
861.000000	0.037206	-0.103196	100.000000
862.000000	0.038472	-0.102990	100.000000
863.000000	0.039763	-0.108096	100.000000
864.000000	0.041071	-0.108141	100.000000
865.000000	0.042387	-0.111641	100.000000
866.000000	0.043718	-0.106441	100.000000
867.000000	0.045072	-0.108145	100.000000
868.000000	0.046450	-0.120180	100.000000
869.000000	0.047848	-0.123434	100.000000
870.000000	0.049273	-0.125272	100.000000
871.000000	0.050729	-0.124951	100.000000
872.000000	0.052210	-0.123460	100.000000
873.000000	0.053727	-0.140219	100.000000
874.000000	0.055290	-0.126694	100.000000
875.000000	0.056906	-0.136824	100.000000
876.000000	0.058595	-0.130022	100.000000
877.000000	0.060371	-0.140135	100.000000
878.000000	0.062223	-0.126363	100.000000
879.000000	0.064159	-0.146896	100.000000
880.000000	0.066191	-0.128042	100.000000
881.000000	0.068320	-0.139687	100.000000
882.000000	0.070563	-0.144867	100.000000
883.000000	0.072922	-0.148253	100.000000
884.000000	0.075399	-0.160402	100.000000
885.000000	0.078000	-0.137790	100.000000
886.000000	0.080726	-0.154961	100.000000
887.000000	0.083578	-0.166363	100.000000
888.000000	0.086570	-0.163186	100.000000
889.000000	0.089714	-0.176699	100.000000
890.000000	0.093024	-0.183329	100.000000
891.000000	0.096508	-0.162815	100.000000
892.000000	0.100167	-0.169390	100.000000
893.000000	0.103995	-0.179378	100.000000
894.000000	0.107988	-0.180934	100.000000
895.000000	0.112149	-0.174152	100.000000
896.000000	0.116480	-0.190893	100.000000
897.000000	0.120980	-0.185709	100.000000
898.000000	0.125629	-0.180306	100.000000
899.000000	0.130415	-0.190469	100.000000
900.000000	0.135345	-0.192031	100.000000
901.000000	0.140436	-0.186674	100.000000
902.000000	0.145681	-0.188293	100.000000
903.000000	0.151084	-0.179408	100.000000
904.000000	0.156656	-0.197897	100.000000
905.000000	0.162393	-0.173892	100.000000
906.000000	0.168274	-0.188973	100.000000
907.000000	0.174295	-0.187129	100.000000
908.000000	0.180456	-0.190282	100.000000
909.000000	0.186756	-0.171396	100.000000
910.000000	0.193204	-0.196787	100.000000
911.000000	0.199814	-0.181127	100.000000
912.000000	0.206587	-0.187694	100.000000
913.000000	0.213526	-0.176937	100.000000
914.000000	0.220620	-0.197333	100.000000
915.000000	0.227867	-0.178463	100.000000
916.000000	0.235273	-0.197153	100.000000
917.000000	0.242839	-0.183021	100.000000
918.000000	0.250573	-0.175829	100.000000
919.000000	0.258484	-0.184255	100.000000
920.000000	0.266561	-0.192486	100.000000
921.000000	0.274777	-0.192082	100.000000
922.000000	0.283115	-0.171261	100.000000
923.000000	0.291575	-0.190143	100.000000
924.000000	0.300161	-0.208344	100.000000
925.000000	0.308875	-0.192971	100.000000
926.000000	0.317713	-0.202976	100.000000
927.000000	0.326672	-0.213227	100.000000
928.000000	0.335759	-0.207418	100.000000
929.000000	0.344970	-0.210746	100.000000
930.000000	0.354281	-0.206814	100.000000
931.000000	0.363684	-0.206827	100.000000
932.000000	0.373200	-0.221923	100.000000
933.000000	0.382834	-0.202763	100.000000
934.000000	0.392574	-0.205982	100.000000
935.000000	0.402404	-0.226147	100.000000
936.000000	0.412307	-0.215848	100.000000
937.000000	0.422271	-0.208706	100.000000
938.000000	0.432284	-0.228951	100.000000
939.000000	0.442321	-0.233753	100.000000
940.000000	0.452363	-0.216486	100.000000
941.000000	0.462401	-0.212678	100.000000
942.000000	0.472421	-0.220917	100.000000
943.000000	0.482409	-0.225896	100.000000
944.000000	0.492369	-0.232734	100.000000
945.000000	0.502316	-0.228750	100.000000
946.000000	0.512274	-0.220000	100.000000
947.000000	0.522246	-0.224823	100.000000
948.000000	0.532225	-0.241769	100.000000
949.000000	0.542213	-0.246439	100.000000
950.000000	0.552220	-0.232777	100.000000
951.000000	0.562252	-0.246003	100.000000
952.000000	0.572293	-0.244038	100.000000
953.000000	0.582327	-0.252041	100.000000
954.000000	0.592352	-0.255466	100.000000
955.000000	0.602386	-0.256733	100.000000
956.000000	0.612441	-0.244448	100.000000
957.000000	0.622522	-0.254734	100.000000
958.000000	0.632628	-0.255978	100.000000
959.000000	0.642754	-0.248934	100.000000
960.000000	0.652895	-0.258806	100.000000
961.000000	0.663051	-0.274231	100.000000
962.000000	0.673218	-0.249877	100.000000
963.000000	0.683379	-0.261815	100.000000
964.000000	0.693509	-0.256248	100.000000
965.000000	0.703597	-0.254469	100.000000
966.000000	0.713658	-0.260976	100.000000
967.000000	0.723701	-0.251886	100.000000
968.000000	0.733731	-0.255394	100.000000
969.000000	0.743759	-0.263671	100.000000
970.000000	0.753787	-0.256616	100.000000
971.000000	0.763800	-0.273195	100.000000
972.000000	0.773784	-0.286832	100.000000
973.000000	0.783754	-0.277694	100.000000
974.000000	0.793737	-0.282845	100.000000
975.000000	0.803755	-0.285865	100.000000
976.000000	0.813808	-0.280607	100.000000
977.000000	0.823896	-0.292207	100.000000
978.000000	0.834031	-0.288615	100.000000
979.000000	0.844224	-0.277749	100.000000
980.000000	0.854484	-0.282825	100.000000
981.000000	0.864797	-0.284069	100.000000
982.000000	0.875142	-0.300959	100.000000
983.000000	0.885518	-0.292237	100.000000
984.000000	0.895934	-0.293558	100.000000
985.000000	0.906386	-0.301669	100.000000
986.000000	0.916867	-0.280765	100.000000
987.000000	0.927363	-0.320059	100.000000
988.000000	0.937864	-0.309118	100.000000
989.000000	0.948375	-0.278255	100.000000
990.000000	0.958891	-0.296884	100.000000
991.000000	0.969394	-0.298357	100.000000
992.000000	0.979867	-0.303423	100.000000
993.000000	0.990294	-0.282669	100.000000
994.000000	1.000669	-0.299616	100.000000
995.000000	1.010983	-0.306262	100.000000
996.000000	1.021225	-0.285544	100.000000
997.000000	1.031394	-0.275159	100.000000
998.000000	1.041508	-0.281795	100.000000
999.000000	1.051578	-0.264789	100.000000
1000.000000	1.061606	-0.254097	100.000000
1001.000000	1.071581	-0.279778	100.000000
1002.000000	1.081485	-0.266048	100.000000
1003.000000	1.091313	-0.259213	100.000000
1004.000000	1.101065	-0.264070	100.000000
1005.000000	1.110745	-0.258719	100.000000
1006.000000	1.120364	-0.244963	100.000000
1007.000000	1.129939	-0.255195	100.000000
1008.000000	1.139480	-0.248199	100.000000
1009.000000	1.148982	-0.260031	100.000000
1010.000000	1.158448	-0.258242	100.000000
1011.000000	1.167887	-0.249348	100.000000
1012.000000	1.177307	-0.256257	100.000000
1013.000000	1.186712	-0.252596	100.000000
1014.000000	1.196128	-0.242409	100.000000
1015.000000	1.205579	-0.248824	100.000000
1016.000000	1.215058	-0.245334	100.000000
1017.000000	1.224567	-0.243505	100.000000
1018.000000	1.234129	-0.263950	100.000000
1019.000000	1.243759	-0.241290	100.000000
1020.000000	1.253464	-0.232453	100.000000
1021.000000	1.263246	-0.217151	100.000000
1022.000000	1.273119	-0.221972	100.000000
1023.000000	1.283106	-0.216638	100.000000
1024.000000	1.293221	-0.229822	100.000000
1025.000000	1.303478	-0.205812	100.000000
1026.000000	1.313883	-0.195337	100.000000
1027.000000	1.324435	-0.185091	100.000000
1028.000000	1.335134	-0.193263	100.000000
1029.000000	1.345984	-0.187917	100.000000
1030.000000	1.356976	-0.194422	100.000000
1031.000000	1.368088	-0.187414	100.000000
1032.000000	1.379307	-0.170102	100.000000
1033.000000	1.390638	-0.159642	100.000000
1034.000000	1.402073	-0.183308	100.000000
1035.000000	1.413593	-0.165850	100.000000
1036.000000	1.425182	-0.186489	100.000000
1037.000000	1.436824	-0.160318	100.000000
1038.000000	1.448505	-0.162109	100.000000
1039.000000	1.460220	-0.154761	100.000000
1040.000000	1.471970	-0.182100	100.000000
1041.000000	1.483741	-0.161167	100.000000
1042.000000	1.495537	-0.167745	100.000000
1043.000000	1.507376	-0.174326	100.000000
1044.000000	1.519260	-0.169034	100.000000
1045.000000	1.531168	-0.159976	100.000000
1046.000000	1.543085	-0.166612	100.000000
1047.000000	1.555006	-0.180000	100.000000
1048.000000	1.566922	-0.162960	100.000000
1049.000000	1.578825	-0.162516	100.000000
1050.000000	1.590709	-0.169072	100.000000
1051.000000	1.602591	-0.148565	100.000000
1052.000000	1.614498	-0.154988	100.000000
1053.000000	1.626435	-0.156364	100.000000
1054.000000	1.638388	-0.162970	100.000000
1055.000000	1.650347	-0.161044	100.000000
1056.000000	1.662293	-0.136650	100.000000
1057.000000	1.674219	-0.148753	100.000000
1058.000000	1.686152	-0.157031	100.000000
1059.000000	1.698117	-0.132723	100.000000
1060.000000	1.710135	-0.148062	100.000000
1061.000000	1.722207	-0.138931	100.000000
1062.000000	1.734323	-0.145848	100.000000
1063.000000	1.746501	-0.124813	100.000000
1064.000000	1.758749	-0.114675	100.000000
1065.000000	1.771048	-0.137799	100.000000
1066.000000	1.783394	-0.134322	100.000000
1067.000000	1.795786	-0.135482	100.000000
1068.000000	1.808211	-0.109704	100.000000
1069.000000	1.820680	-0.116207	100.000000
1070.000000	1.833201	-0.120992	100.000000
1071.000000	1.845760	-0.119084	100.000000
1072.000000	1.858336	-0.108383	100.000000
1073.000000	1.870912	-0.125481	100.000000
1074.000000	1.883484	-0.113089	100.000000
1075.000000	1.896056	-0.124938	100.000000
1076.000000	1.908629	-0.110743	100.000000
1077.000000	1.921186	-0.131207	100.000000
1078.000000	1.933702	-0.116975	100.000000
1079.000000	1.946155	-0.126926	100.000000
1080.000000	1.958548	-0.130209	100.000000
1081.000000	1.970899	-0.114359	100.000000
1082.000000	1.983220	-0.108829	100.000000
1083.000000	1.995508	-0.108763	100.000000
1084.000000	2.007742	-0.125428	100.000000
1085.000000	2.019917	-0.095884	100.000000
1086.000000	2.032047	-0.107755	100.000000
1087.000000	2.044136	-0.107407	100.000000
1088.000000	2.056181	-0.107333	100.000000
1089.000000	2.068197	-0.098616	100.000000
1090.000000	2.080202	-0.096565	100.000000
1091.000000	2.092208	-0.089498	100.000000
1092.000000	2.104223	-0.099520	100.000000
1093.000000	2.116247	-0.088999	100.000000
1094.000000	2.128267	-0.098786	100.000000
1095.000000	2.140282	-0.093443	100.000000
1096.000000	2.152310	-0.086234	100.000000
1097.000000	2.164354	-0.087718	100.000000
1098.000000	2.176418	-0.089408	100.000000
1099.000000	2.188495	-0.076889	100.000000
1100.000000	2.200568	-0.083576	100.000000
1101.000000	2.212635	-0.077867	100.000000
1102.000000	2.224698	-0.088251	100.000000
1103.000000	2.236760	-0.096250	100.000000
1104.000000	2.248833	-0.070253	100.000000
1105.000000	2.260908	-0.103792	100.000000
1106.000000	2.272970	-0.097063	100.000000
1107.000000	2.285019	-0.081250	100.000000
1108.000000	2.297063	-0.111719	100.000000
1109.000000	2.309090	-0.085947	100.000000
1110.000000	2.321088	-0.106094	100.000000
1111.000000	2.333054	-0.081669	100.000000
1112.000000	2.344989	-0.090030	100.000000
1113.000000	2.356898	-0.074332	100.000000
1114.000000	2.368798	-0.084299	100.000000
1115.000000	2.380701	-0.080589	100.000000
1116.000000	2.392601	-0.083587	100.000000
1117.000000	2.404494	-0.095921	100.000000
1118.000000	2.416377	-0.081495	100.000000
1119.000000	2.428247	-0.090047	100.000000
1120.000000	2.440098	-0.089263	100.000000
1121.000000	2.451915	-0.077079	100.000000
1122.000000	2.463694	-0.068272	100.000000
1123.000000	2.475438	-0.080121	100.000000
1124.000000	2.487145	-0.084936	100.000000
1125.000000	2.498821	-0.040437	100.000000
1126.000000	2.510456	-0.087791	100.000000
1127.000000	2.522033	-0.058440	100.000000
1128.000000	2.533558	-0.073609	100.000000
1129.000000	2.545010	-0.071384	100.000000
1130.000000	2.556362	-0.081680	100.000000
1131.000000	2.567627	-0.079958	100.000000
1132.000000	2.578826	-0.084459	100.000000
1133.000000	2.589959	-0.075891	100.000000
1134.000000	2.601011	-0.091279	100.000000
1135.000000	2.611976	-0.066953	100.000000
1136.000000	2.622856	-0.073593	100.000000
1137.000000	2.633647	-0.078378	100.000000
1138.000000	2.644367	-0.078531	100.000000
1139.000000	2.655033	-0.084944	100.000000
1140.000000	2.665620	-0.082968	100.000000
1141.000000	2.676109	-0.089740	100.000000
1142.000000	2.686511	-0.082745	100.000000
1143.000000	2.696830	-0.072020	100.000000
1144.000000	2.707070	-0.078891	100.000000
1145.000000	2.717255	-0.109316	100.000000
1146.000000	2.727391	-0.067989	100.000000
1147.000000	2.737468	-0.083308	100.000000
1148.000000	2.747492	-0.088427	100.000000
1149.000000	2.757473	-0.070856	100.000000
1150.000000	2.767416	-0.049937	100.000000
1151.000000	2.777320	-0.067384	100.000000
1152.000000	2.787167	-0.043144	100.000000
1153.000000	2.796957	-0.070163	100.000000
1154.000000	2.806716	-0.068325	100.000000
1155.000000	2.816443	-0.056055	100.000000
1156.000000	2.826119	-0.057545	100.000000
1157.000000	2.835732	-0.079792	100.000000
1158.000000	2.845284	-0.069176	100.000000
1159.000000	2.854771	-0.070769	100.000000
1160.000000	2.864171	-0.065307	100.000000
1161.000000	2.873478	-0.061558	100.000000
1162.000000	2.882691	-0.082105	100.000000
1163.000000	2.891814	-0.081916	100.000000
1164.000000	2.900852	-0.064729	100.000000
1165.000000	2.909800	-0.076799	100.000000
1166.000000	2.918658	-0.081647	100.000000
1167.000000	2.927417	-0.083310	100.000000
1168.000000	2.936067	-0.060822	100.000000
1169.000000	2.944615	-0.069267	100.000000
1170.000000	2.953066	-0.077639	100.000000
1171.000000	2.961423	-0.084315	100.000000
1172.000000	2.969693	-0.097808	100.000000
1173.000000	2.977869	-0.083768	100.000000
1174.000000	2.985934	-0.094239	100.000000
1175.000000	2.993883	-0.087267	100.000000
1176.000000	3.001742	-0.073583	100.000000
1177.000000	3.009529	-0.078492	100.000000
1178.000000	3.017261	-0.098945	100.000000
1179.000000	3.024947	-0.088521	100.000000
1180.000000	3.032598	-0.084899	100.000000
1181.000000	3.040221	-0.094952	100.000000
1182.000000	3.047807	-0.099836	100.000000
1183.000000	3.055345	-0.103435	100.000000
1184.000000	3.062839	-0.096288	100.000000
1185.000000	3.070298	-0.080624	100.000000
1186.000000	3.077710	-0.089147	100.000000
1187.000000	3.085073	-0.092229	100.000000
1188.000000	3.092412	-0.102540	100.000000
1189.000000	3.099734	-0.090342	100.000000
1190.000000	3.107025	-0.097158	100.000000
1191.000000	3.114275	-0.108967	100.000000
1192.000000	3.121473	-0.120765	100.000000
1193.000000	3.128607	-0.108680	100.000000
1194.000000	3.135691	-0.110434	100.000000
1195.000000	3.142740	-0.111844	100.000000
1196.000000	3.149751	-0.108455	100.000000
1197.000000	3.156739	-0.109948	100.000000
1198.000000	3.163722	-0.125256	100.000000
1199.000000	3.170686	-0.111366	100.000000
1200.000000	3.177619	-0.111277	100.000000
1201.000000	3.184522	-0.126584	100.000000
1202.000000	3.191381	-0.133072	100.000000
1203.000000	3.198172	-0.124643	100.000000
1204.000000	3.204899	-0.141509	100.000000
1205.000000	3.211581	-0.139865	100.000000
1206.000000	3.218232	-0.148253	100.000000
1207.000000	3.224852	-0.139381	100.000000
1208.000000	3.231437	-0.149810	100.000000
1209.000000	3.237985	-0.142681	100.000000
1210.000000	3.244499	-0.142852	100.000000
1211.000000	3.250980	-0.146011	100.000000
1212.000000	3.257444	-0.147788	100.000000
1213.000000	3.263917	-0.137398	100.000000
1214.000000	3.270403	-0.142404	100.000000
1215.000000	3.276891	-0.150420	100.000000
1216.000000	3.283382	-0.154253	100.000000
1217.000000	3.289886	-0.147195	100.000000
1218.000000	3.296389	-0.157119	100.000000
1219.000000	3.302872	-0.163864	100.000000
1220.000000	3.309345	-0.161926	100.000000
1221.000000	3.315825	-0.165338	100.000000
1222.000000	3.322298	-0.160151	100.000000
1223.000000	3.328751	-0.160072	100.000000
1224.000000	3.335180	-0.180312	100.000000
1225.000000	3.341572	-0.195901	100.000000
1226.000000	3.347922	-0.173083	100.000000
1227.000000	3.354224	-0.195465	100.000000
1228.000000	3.360472	-0.185290	100.000000
1229.000000	3.366671	-0.188585	100.000000
1230.000000	3.372812	-0.190010	100.000000
1231.000000	3.378891	-0.203465	100.000000
1232.000000	3.384913	-0.208759	100.000000
1233.000000	3.390879	-0.196222	100.000000
1234.000000	3.396789	-0.210110	100.000000
1235.000000	3.402635	-0.206906	100.000000
1236.000000	3.408409	-0.213245	100.000000
1237.000000	3.414119	-0.223680	100.000000
1238.000000	3.419778	-0.221783	100.000000
1239.000000	3.425398	-0.226892	100.000000
1240.000000	3.430975	-0.235179	100.000000
1241.000000	3.436501	-0.221525	100.000000
1242.000000	3.441992	-0.243580	100.000000
1243.000000	3.447445	-0.257418	100.000000
1244.000000	3.452843	-0.258996	100.000000
1245.000000	3.458184	-0.248653	100.000000
1246.000000	3.463481	-0.272262	100.000000
1247.000000	3.468747	-0.257122	100.000000
1248.000000	3.473994	-0.277421	100.000000
1249.000000	3.479218	-0.265316	100.000000
1250.000000	3.484395	-0.263266	100.000000
1251.000000	3.489526	-0.275829	100.000000
1252.000000	3.494632	-0.295998	100.000000
1253.000000	3.499723	-0.290733	100.000000
1254.000000	3.504802	-0.297279	100.000000
1255.000000	3.509867	-0.288664	100.000000
1256.000000	3.514913	-0.290336	100.000000
1257.000000	3.519954	-0.286698	100.000000
1258.000000	3.525003	-0.307272	100.000000
1259.000000	3.530048	-0.303637	100.000000
1260.000000	3.535074	-0.320510	100.000000
1261.000000	3.540078	-0.303338	100.000000
1262.000000	3.545037	-0.332642	100.000000
1263.000000	3.549929	-0.308351	100.000000
1264.000000	3.554768	-0.327206	100.000000
1265.000000	3.559580	-0.318423	100.000000
1266.000000	3.564372	-0.334170	100.000000
1267.000000	3.569147	-0.330401	100.000000
1268.000000	3.573892	-0.347381	100.000000
1269.000000	3.578584	-0.335239	100.000000
1270.000000	3.583219	-0.339052	100.000000
1271.000000	3.587808	-0.338672	100.000000
1272.000000	3.592344	-0.360988	100.000000
1273.000000	3.596822	-0.336656	100.000000
1274.000000	3.601239	-0.345412	100.000000
1275.000000	3.605597	-0.366163	100.000000
1276.000000	3.609903	-0.350493	100.000000
1277.000000	3.614158	-0.367438	100.000000
1278.000000	3.618361	-0.357219	100.000000
1279.000000	3.622512	-0.367459	100.000000
1280.000000	3.626616	-0.350220	100.000000
1281.000000	3.630672	-0.365844	100.000000
1282.000000	3.634672	-0.382937	100.000000
1283.000000	3.638614	-0.377711	100.000000
1284.000000	3.642507	-0.377614	100.000000
1285.000000	3.646363	-0.387920	100.000000
1286.000000	3.650187	-0.377680	100.000000
1287.000000	3.653981	-0.377660	100.000000
1288.000000	3.657744	-0.382714	100.000000
1289.000000	3.661470	-0.379051	100.000000
1290.000000	3.665147	-0.392775	100.000000
1291.000000	3.668768	-0.387838	100.000000
1292.000000	3.672332	-0.392753	100.000000
1293.000000	3.675845	-0.382563	100.000000
1294.000000	3.679310	-0.389546	100.000000
1295.000000	3.682730	-0.399864	100.000000
1296.000000	3.686099	-0.397851	100.000000
1297.000000	3.689398	-0.397870	100.000000
1298.000000	3.692605	-0.403159	100.000000
1299.000000	3.695712	-0.399644	100.000000
1300.000000	3.698738	-0.421701	100.000000
1301.000000	3.701710	-0.390752	100.000000
1302.000000	3.704628	-0.411412	100.000000
1303.000000	3.707486	-0.418511	100.000000
1304.000000	3.710294	-0.406581	100.000000
1305.000000	3.713059	-0.423363	100.000000
1306.000000	3.715765	-0.406456	100.000000
1307.000000	3.718401	-0.432037	100.000000
1308.000000	3.720956	-0.426961	100.000000
1309.000000	3.723428	-0.418434	100.000000
1310.000000	3.725830	-0.420168	100.000000
1311.000000	3.728167	-0.440726	100.000000
1312.000000	3.730427	-0.452814	100.000000
1313.000000	3.732611	-0.432159	100.000000
1314.000000	3.734738	-0.428603	100.000000
1315.000000	3.736828	-0.456470	100.000000
1316.000000	3.738878	-0.447611	100.000000
1317.000000	3.740891	-0.456394	100.000000
1318.000000	3.742894	-0.449361	100.000000
1319.000000	3.744899	-0.449527	100.000000
1320.000000	3.746904	-0.466438	100.000000
1321.000000	3.748918	-0.437351	100.000000
1322.000000	3.750935	-0.451092	100.000000
1323.000000	3.752948	-0.440783	100.000000
1324.000000	3.754963	-0.452760	100.000000
1325.000000	3.756975	-0.476684	100.000000
1326.000000	3.758977	-0.442499	100.000000
1327.000000	3.760983	-0.464725	100.000000
1328.000000	3.763015	-0.474992	100.000000
1329.000000	3.765062	-0.463082	100.000000
1330.000000	3.767097	-0.473414	100.000000
1331.000000	3.769111	-0.473344	100.000000
1332.000000	3.771107	-0.497297	100.000000
1333.000000	3.773075	-0.483535	100.000000
1334.000000	3.775003	-0.503899	100.000000
1335.000000	3.776899	-0.478351	100.000000
1336.000000	3.778772	-0.490137	100.000000
1337.000000	3.780610	-0.493791	100.000000
1338.000000	3.782381	-0.510945	100.000000
1339.000000	3.784077	-0.493840	100.000000
1340.000000	3.785717	-0.500666	100.000000
1341.000000	3.787302	-0.502374	100.000000
1342.000000	3.788829	-0.493952	100.000000
1343.000000	3.790317	-0.488918	100.000000
1344.000000	3.791779	-0.509493	100.000000
1345.000000	3.793208	-0.519692	100.000000
1346.000000	3.794603	-0.505855	100.000000
1347.000000	3.795983	-0.516064	100.000000
1348.000000	3.797367	-0.507633	100.000000
1349.000000	3.798756	-0.514676	100.000000
1350.000000	3.800152	-0.502676	100.000000
1351.000000	3.801569	-0.514437	100.000000
1352.000000	3.803020	-0.509640	100.000000
1353.000000	3.804519	-0.526627	100.000000
1354.000000	3.806062	-0.535344	100.000000
1355.000000	3.807653	-0.500915	100.000000
1356.000000	3.809289	-0.504470	100.000000
1357.000000	3.810959	-0.512805	100.000000
1358.000000	3.812670	-0.514760	100.000000
1359.000000	3.814429	-0.501105	100.000000
1360.000000	3.816240	-0.514661	100.000000
1361.000000	3.818094	-0.519759	100.000000
1362.000000	3.819993	-0.502745	100.000000
1363.000000	3.821955	-0.514496	100.000000
1364.000000	3.823987	-0.509507	100.000000
1365.000000	3.826086	-0.522874	100.000000
1366.000000	3.828246	-0.521475	100.000000
1367.000000	3.830462	-0.504079	100.000000
1368.000000	3.832729	-0.519379	100.000000
1369.000000	3.835046	-0.507583	100.000000
1370.000000	3.837403	-0.515770	100.000000
1371.000000	3.839789	-0.503973	100.000000
1372.000000	3.842213	-0.519214	100.000000
1373.000000	3.844687	-0.529734	100.000000
1374.000000	3.847207	-0.520860	100.000000
1375.000000	3.849746	-0.534552	100.000000
1376.000000	3.852284	-0.519276	100.000000
1377.000000	3.854828	-0.514207	100.000000
1378.000000	3.857391	-0.529447	100.000000
1379.000000	3.859978	-0.510428	100.000000
1380.000000	3.862580	-0.529061	100.000000
1381.000000	3.865189	-0.510495	100.000000
1382.000000	3.867795	-0.520737	100.000000
1383.000000	3.870391	-0.527496	100.000000
1384.000000	3.872982	-0.534214	100.000000
1385.000000	3.875570	-0.535807	100.000000
1386.000000	3.878137	-0.559756	100.000000
1387.000000	3.880666	-0.547854	100.000000
1388.000000	3.883161	-0.532635	100.000000
1389.000000	3.885636	-0.543082	100.000000
1390.000000	3.888102	-0.549680	100.000000
1391.000000	3.890549	-0.547884	100.000000
1392.000000	3.892962	-0.527149	100.000000
1393.000000	3.895351	-0.539323	100.000000
1394.000000	3.897734	-0.554394	100.000000
1395.000000	3.900118	-0.547786	100.000000
1396.000000	3.902507	-0.570043	100.000000
1397.000000	3.904905	-0.544342	100.000000
1398.000000	3.907323	-0.571556	100.000000
1399.000000	3.909781	-0.561233	100.000000
1400.000000	3.912290	-0.554225	100.000000
1401.000000	3.914871	-0.564365	100.000000
1402.000000	3.917546	-0.579846	100.000000
1403.000000	3.920322	-0.557404	100.000000
1404.000000	3.923193	-0.553893	100.000000
1405.000000	3.926170	-0.555629	100.000000
1406.000000	3.929261	-0.560247	100.000000
1407.000000	3.932452	-0.565477	100.000000
1408.000000	3.935732	-0.567003	100.000000
1409.000000	3.939100	-0.566880	100.000000
1410.000000	3.942565	-0.548171	100.000000
1411.000000	3.946148	-0.553136	100.000000
1412.000000	3.949845	-0.542880	100.000000
1413.000000	3.953628	-0.563205	100.000000
1414.000000	3.957471	-0.566524	100.000000
1415.000000	3.961382	-0.557737	100.000000
1416.000000	3.965375	-0.552706	100.000000
1417.000000	3.969446	-0.568061	100.000000
1418.000000	3.973580	-0.564255	100.000000
1419.000000	3.977768	-0.557429	100.000000
1420.000000	3.982003	-0.576007	100.000000
1421.000000	3.986280	-0.569211	100.000000
1422.000000	3.990590	-0.564106	100.000000
1423.000000	3.994933	-0.580956	100.000000
1424.000000	3.999306	-0.557109	100.000000
1425.000000	4.003709	-0.567140	100.000000
1426.000000	4.008146	-0.553625	100.000000
1427.000000	4.012624	-0.556696	100.000000
1428.000000	4.017152	-0.575683	100.000000
1429.000000	4.021724	-0.568390	100.000000
1430.000000	4.026319	-0.563454	100.000000
1431.000000	4.030937	-0.570089	100.000000
1432.000000	4.035588	-0.547751	100.000000
1433.000000	4.040262	-0.552749	100.000000
1434.000000	4.044951	-0.557934	100.000000
1435.000000	4.049662	-0.554180	100.000000
1436.000000	4.054392	-0.567878	100.000000
1437.000000	4.059142	-0.566090	100.000000
1438.000000	4.063909	-0.554178	100.000000
1439.000000	4.068684	-0.560699	100.000000
1440.000000	4.073464	-0.560533	100.000000
1441.000000	4.078253	-0.577801	100.000000
1442.000000	4.083051	-0.569163	100.000000
1443.000000	4.087861	-0.575703	100.000000
1444.000000	4.092675	-0.558835	100.000000
1445.000000	4.097479	-0.565228	100.000000
1446.000000	4.102279	-0.570361	100.000000
1447.000000	4.107079	-0.565088	100.000000
1448.000000	4.111864	-0.566769	100.000000
1449.000000	4.116623	-0.561411	100.000000
1450.000000	4.121364	-0.561214	100.000000
1451.000000	4.126101	-0.556145	100.000000
1452.000000	4.130832	-0.571359	100.000000
1453.000000	4.135553	-0.571168	100.000000
1454.000000	4.140268	-0.545422	100.000000
1455.000000	4.144979	-0.572717	100.000000
1456.000000	4.149679	-0.564127	100.000000
1457.000000	4.154381	-0.555229	100.000000
1458.000000	4.159113	-0.553640	100.000000
1459.000000	4.163872	-0.553473	100.000000
1460.000000	4.168639	-0.558696	100.000000
1461.000000	4.173404	-0.568702	100.000000
1462.000000	4.178162	-0.570434	100.000000
1463.000000	4.182920	-0.565229	100.000000
1464.000000	4.187707	-0.539352	100.000000
1465.000000	4.192533	-0.539501	100.000000
1466.000000	4.197385	-0.570078	100.000000
1467.000000	4.202248	-0.546150	100.000000
1468.000000	4.207131	-0.556001	100.000000
1469.000000	4.212041	-0.556148	100.000000
1470.000000	4.216981	-0.554189	100.000000
1471.000000	4.221963	-0.547133	100.000000
1472.000000	4.227000	-0.550450	100.000000
1473.000000	4.232087	-0.529706	100.000000
1474.000000	4.237208	-0.541704	100.000000
1475.000000	4.242349	-0.556858	100.000000
1476.000000	4.247489	-0.534589	100.000000
1477.000000	4.252621	-0.558420	100.000000
1478.000000	4.257759	-0.537913	100.000000
1479.000000	4.262919	-0.549627	100.000000
1480.000000	4.268107	-0.537982	100.000000
1481.000000	4.273311	-0.533789	100.000000
1482.000000	4.278513	-0.543891	100.000000
1483.000000	4.283711	-0.538823	100.000000
1484.000000	4.288908	-0.544125	100.000000
1485.000000	4.294103	-0.545546	100.000000
1486.000000	4.299281	-0.535218	100.000000
1487.000000	4.304443	-0.536699	100.000000
1488.000000	4.309595	-0.541638	100.000000
1489.000000	4.314716	-0.553567	100.000000
1490.000000	4.319815	-0.534700	100.000000
1491.000000	4.324913	-0.541680	100.000000
1492.000000	4.329997	-0.542875	100.000000
1493.000000	4.335043	-0.532584	100.000000
1494.000000	4.340055	-0.546341	100.000000
1495.000000	4.345042	-0.542990	100.000000
1496.000000	4.350014	-0.546008	100.000000
1497.000000	4.354979	-0.542611	100.000000
1498.000000	4.359931	-0.535578	100.000000
1499.000000	4.364857	-0.538973	100.000000
1500.000000	4.369770	-0.532223	100.000000
1501.000000	4.374688	-0.540623	100.000000
1502.000000	4.379601	-0.529986	100.000000
1503.000000	4.384500	-0.538567	100.000000
1504.000000	4.389385	-0.514107	100.000000
1505.000000	4.394261	-0.541753	100.000000
1506.000000	4.399144	-0.528078	100.000000
1507.000000	4.404049	-0.536531	100.000000
1508.000000	4.408971	-0.534529	100.000000
1509.000000	4.413897	-0.541253	100.000000
1510.000000	4.418829	-0.525931	100.000000
1511.000000	4.423757	-0.532542	100.000000
1512.000000	4.428669	-0.530848	100.000000
1513.000000	4.433570	-0.516767	100.000000
1514.000000	4.438463	-0.532111	100.000000
1515.000000	4.443343	-0.539067	100.000000
1516.000000	4.448210	-0.530143	100.000000
1517.000000	4.453060	-0.536809	100.000000
1518.000000	4.457877	-0.541856	100.000000
1519.000000	4.462649	-0.541995	100.000000
1520.000000	4.467363	-0.526301	100.000000
1521.000000	4.472018	-0.548509	100.000000
1522.000000	4.476620	-0.536276	100.000000
1523.000000	4.481160	-0.532772	100.000000
1524.000000	4.485625	-0.548283	100.000000
1525.000000	4.490029	-0.541120	100.000000
1526.000000	4.494366	-0.542944	100.000000
1527.000000	4.498613	-0.544397	100.000000
1528.000000	4.502789	-0.549534	100.000000
1529.000000	4.506905	-0.541094	100.000000
1530.000000	4.510948	-0.533715	100.000000
1531.000000	4.514908	-0.535494	100.000000
1532.000000	4.518785	-0.530370	100.000000
1533.000000	4.522585	-0.549239	100.000000
1534.000000	4.526323	-0.550963	100.000000
1535.000000	4.530020	-0.540548	100.000000
1536.000000	4.533685	-0.542078	100.000000
1537.000000	4.537311	-0.540387	100.000000
1538.000000	4.540891	-0.540137	100.000000
1539.000000	4.544439	-0.519627	100.000000
1540.000000	4.547987	-0.531539	100.000000
1541.000000	4.551540	-0.526193	100.000000
1542.000000	4.555080	-0.539658	100.000000
1543.000000	4.558606	-0.539705	100.000000
1544.000000	4.562120	-0.527666	100.000000
1545.000000	4.565625	-0.536048	100.000000
1546.000000	4.569120	-0.548095	100.000000
1547.000000	4.572605	-0.539209	100.000000
1548.000000	4.576096	-0.549494	100.000000
1549.000000	4.579584	-0.559653	100.000000
1550.000000	4.583047	-0.550907	100.000000
1551.000000	4.586478	-0.547550	100.000000
1552.000000	4.589869	-0.554414	100.000000
1553.000000	4.593216	-0.538815	100.000000
1554.000000	4.596510	-0.549169	100.000000
1555.000000	4.599744	-0.555790	100.000000
1556.000000	4.602916	-0.542320	100.000000
1557.000000	4.606014	-0.547227	100.000000
1558.000000	4.609014	-0.559122	100.000000
1559.000000	4.611922	-0.550623	100.000000
1560.000000	4.614755	-0.546880	100.000000
1561.000000	4.617510	-0.559111	100.000000
1562.000000	4.620187	-0.560917	100.000000
1563.000000	4.622796	-0.553821	100.000000
1564.000000	4.625331	-0.562441	100.000000
1565.000000	4.627790	-0.565785	100.000000
1566.000000	4.630168	-0.542046	100.000000
1567.000000	4.632462	-0.565659	100.000000
1568.000000	4.634692	-0.541753	100.000000
1569.000000	4.636866	-0.550282	100.000000
1570.000000	4.638977	-0.553770	100.000000
1571.000000	4.641022	-0.553744	100.000000
1572.000000	4.643002	-0.555480	100.000000
1573.000000	4.644917	-0.547002	100.000000
1574.000000	4.646777	-0.550406	100.000000
1575.000000	4.648597	-0.552044	100.000000
1576.000000	4.650372	-0.539866	100.000000
1577.000000	4.652092	-0.536548	100.000000
1578.000000	4.653760	-0.521167	100.000000
1579.000000	4.655379	-0.552256	100.000000
1580.000000	4.656947	-0.531426	100.000000
1581.000000	4.658467	-0.553752	100.000000
1582.000000	4.659941	-0.533157	100.000000
1583.000000	4.661366	-0.565600	100.000000
1584.000000	4.662733	-0.526208	100.000000
1585.000000	4.664043	-0.536213	100.000000
1586.000000	4.665299	-0.543130	100.000000
1587.000000	4.666502	-0.522668	100.000000
1588.000000	4.667665	-0.531393	100.000000
1589.000000	4.668798	-0.544957	100.000000
1590.000000	4.669893	-0.531312	100.000000
1591.000000	4.670932	-0.531212	100.000000
1592.000000	4.671898	-0.534798	100.000000
1593.000000	4.672796	-0.538106	100.000000
1594.000000	4.673640	-0.533029	100.000000
1595.000000	4.674430	-0.515542	100.000000
1596.000000	4.675159	-0.521015	100.000000
1597.000000	4.675838	-0.533164	100.000000
1598.000000	4.676484	-0.536653	100.000000
1599.000000	4.677102	-0.533411	100.000000
1600.000000	4.677697	-0.540054	100.000000
1601.000000	4.678259	-0.519671	100.000000
1602.000000	4.678790	-0.521154	100.000000
1603.000000	4.679309	-0.521460	100.000000
1604.000000	4.679840	-0.523055	100.000000
1605.000000	4.680392	-0.518131	100.000000
1606.000000	4.680959	-0.516016	100.000000
1607.000000	4.681531	-0.521288	100.000000
1608.000000	4.682108	-0.515911	100.000000
1609.000000	4.682705	-0.524615	100.000000
1610.000000	4.683321	-0.514281	100.000000
1611.000000	4.683944	-0.496964	100.000000
1612.000000	4.684580	-0.514352	100.000000
1613.000000	4.685233	-0.502268	100.000000
1614.000000	4.685892	-0.522672	100.000000
1615.000000	4.686555	-0.497064	100.000000
1616.000000	4.687230	-0.498594	100.000000
1617.000000	4.687906	-0.502154	100.000000
1618.000000	4.688577	-0.501964	100.000000
1619.000000	4.689251	-0.510879	100.000000
1620.000000	4.689933	-0.500642	100.000000
1621.000000	4.690624	-0.512525	100.000000
1622.000000	4.691318	-0.502012	100.000000
1623.000000	4.692007	-0.509048	100.000000
1624.000000	4.692690	-0.519306	100.000000
1625.000000	4.693369	-0.500525	100.000000
1626.000000	4.694043	-0.515927	100.000000
1627.000000	4.694703	-0.493557	100.000000
1628.000000	4.695364	-0.492039	100.000000
1629.000000	4.696046	-0.495126	100.000000
1630.000000	4.696740	-0.504024	100.000000
1631.000000	4.697435	-0.493712	100.000000
1632.000000	4.698134	-0.507303	100.000000
1633.000000	4.698855	-0.496976	100.000000
1634.000000	4.699610	-0.487021	100.000000
1635.000000	4.700402	-0.498706	100.000000
1636.000000	4.701239	-0.483219	100.000000
1637.000000	4.702134	-0.493504	100.000000
1638.000000	4.703085	-0.495035	100.000000
1639.000000	4.704079	-0.488218	100.000000
1640.000000	4.705109	-0.479883	100.000000
1641.000000	4.706175	-0.477957	100.000000
1642.000000	4.707263	-0.494977	100.000000
1643.000000	4.708363	-0.481407	100.000000
1644.000000	4.709466	-0.484692	100.000000
1645.000000	4.710568	-0.477932	100.000000
1646.000000	4.711670	-0.482948	100.000000
1647.000000	4.712775	-0.474473	100.000000
1648.000000	4.713871	-0.476071	100.000000
1649.000000	4.714951	-0.475969	100.000000
1650.000000	4.716011	-0.482867	100.000000
1651.000000	4.717029	-0.503431	100.000000
1652.000000	4.717993	-0.496548	100.000000
1653.000000	4.718919	-0.498546	100.000000
1654.000000	4.719831	-0.470847	100.000000
1655.000000	4.720725	-0.480907	100.000000
1656.000000	4.721591	-0.506731	100.000000
1657.000000	4.722427	-0.494795	100.000000
1658.000000	4.723233	-0.486207	100.000000
1659.000000	4.724025	-0.484687	100.000000
1660.000000	4.724833	-0.484333	100.000000
1661.000000	4.725667	-0.489682	100.000000
1662.000000	4.726537	-0.468909	100.000000
1663.000000	4.727464	-0.469228	100.000000
1664.000000	4.728461	-0.467290	100.000000
1665.000000	4.729539	-0.467078	100.000000
1666.000000	4.730708	-0.468823	100.000000
1667.000000	4.731975	-0.451701	100.000000
1668.000000	4.733360	-0.456729	100.000000
1669.000000	4.734877	-0.456561	100.000000
1670.000000	4.736526	-0.439558	100.000000
1671.000000	4.738313	-0.458100	100.000000
1672.000000	4.740228	-0.451286	100.000000
1673.000000	4.742255	-0.437353	100.000000
1674.000000	4.744396	-0.423641	100.000000
1675.000000	4.746658	-0.437206	100.000000
1676.000000	4.749031	-0.435393	100.000000
1677.000000	4.751504	-0.435163	100.000000
1678.000000	4.754065	-0.431900	100.000000
1679.000000	4.756696	-0.433490	100.000000
1680.000000	4.759384	-0.431553	100.000000
1681.000000	4.762111	-0.428131	100.000000
1682.000000	4.764866	-0.433210	100.000000
1683.000000	4.767646	-0.433397	100.000000
1684.000000	4.770448	-0.426228	100.000000
1685.000000	4.773273	-0.429693	100.000000
1686.000000	4.776132	-0.424603	100.000000
1687.000000	4.779032	-0.412497	100.000000
1688.000000	4.781957	-0.415955	100.000000
1689.000000	4.784889	-0.431242	100.000000
1690.000000	4.787807	-0.429692	100.000000
1691.000000	4.790698	-0.427804	100.000000
1692.000000	4.793570	-0.405663	100.000000
1693.000000	4.796431	-0.412231	100.000000
1694.000000	4.799284	-0.412504	100.000000
1695.000000	4.802124	-0.401855	100.000000
1696.000000	4.804949	-0.393527	100.000000
1697.000000	4.807757	-0.441462	100.000000
1698.000000	4.810557	-0.408690	100.000000
1699.000000	4.813354	-0.400073	100.000000
1700.000000	4.816153	-0.405206	100.000000
1701.000000	4.818967	-0.396327	100.000000
1702.000000	4.821789	-0.380973	100.000000
1703.000000	4.824625	-0.396270	100.000000
1704.000000	4.827503	-0.372211	100.000000
1705.000000	4.830428	-0.390915	100.000000
1706.000000	4.833393	-0.378927	100.000000
1707.000000	4.836389	-0.383952	100.000000
1708.000000	4.839411	-0.388776	100.000000
1709.000000	4.842471	-0.366763	100.000000
1710.000000	4.845585	-0.367965	100.000000
1711.000000	4.848755	-0.368180	100.000000
1712.000000	4.851976	-0.362447	100.000000
1713.000000	4.855247	-0.364569	100.000000
1714.000000	4.858552	-0.352251	100.000000
1715.000000	4.861886	-0.362553	100.000000
1716.000000	4.865258	-0.353911	100.000000
1717.000000	4.868665	-0.353404	100.000000
1718.000000	4.872091	-0.343225	100.000000
1719.000000	4.875544	-0.350113	100.000000
1720.000000	4.879029	-0.353414	100.000000
1721.000000	4.882548	-0.344798	100.000000
1722.000000	4.886108	-0.337636	100.000000
1723.000000	4.889715	-0.337694	100.000000
1724.000000	4.893366	-0.347837	100.000000
1725.000000	4.897059	-0.334257	100.000000
1726.000000	4.900803	-0.326996	100.000000
1727.000000	4.904596	-0.339142	100.000000
1728.000000	4.908433	-0.325261	100.000000
1729.000000	4.912318	-0.318168	100.000000
1730.000000	4.916242	-0.307827	100.000000
1731.000000	4.920198	-0.311326	100.000000
1732.000000	4.924192	-0.304091	100.000000
1733.000000	4.928231	-0.285405	100.000000
1734.000000	4.932325	-0.287070	100.000000
1735.000000	4.936470	-0.293796	100.000000
1736.000000	4.940662	-0.301921	100.000000
1737.000000	4.944902	-0.302188	100.000000
1738.000000	4.949192	-0.290084	100.000000
1739.000000	4.953531	-0.271127	100.000000
1740.000000	4.957904	-0.284539	100.000000
1741.000000	4.962297	-0.272419	100.000000
1742.000000	4.966696	-0.284542	100.000000
1743.000000	4.971100	-0.273935	100.000000
1744.000000	4.975507	-0.268850	100.000000
1745.000000	4.979918	-0.260001	100.000000
1746.000000	4.984339	-0.266644	100.000000
1747.000000	4.988765	-0.257544	100.000000
1748.000000	4.993189	-0.261300	100.000000
1749.000000	4.997620	-0.245860	100.000000
1750.000000	5.002064	-0.238608	100.000000
1751.000000	5.006528	-0.255802	100.000000
1752.000000	5.011003	-0.247410	100.000000
1753.000000	5.015475	-0.238082	100.000000
1754.000000	5.019948	-0.240109	100.000000
1755.000000	5.024428	-0.229300	100.000000
1756.000000	5.028909	-0.220875	100.000000
1757.000000	5.033384	-0.229278	100.000000
1758.000000	5.037850	-0.215547	100.000000
1759.000000	5.042298	-0.225760	100.000000
1760.000000	5.046717	-0.229093	100.000000
1761.000000	5.051103	-0.225772	100.000000
1762.000000	5.055456	-0.220141	100.000000
1763.000000	5.059781	-0.223753	100.000000
1764.000000	5.064072	-0.214736	100.000000
1765.000000	5.068315	-0.197472	100.000000
1766.000000	5.072513	-0.202624	100.000000
1767.000000	5.076685	-0.199059	100.000000
1768.000000	5.080846	-0.182085	100.000000
1769.000000	5.084979	-0.199029	100.000000
1770.000000	5.089053	-0.202294	100.000000
1771.000000	5.093090	-0.202286	100.000000
1772.000000	5.097115	-0.178560	100.000000
1773.000000	5.101132	-0.183295	100.000000
1774.000000	5.105147	-0.166172	100.000000
1775.000000	5.109159	-0.179441	100.000000
1776.000000	5.113162	-0.186476	100.000000
1777.000000	5.117167	-0.179489	100.000000
1778.000000	5.121206	-0.172756	100.000000
1779.000000	5.125286	-0.161744	100.000000
1780.000000	5.129397	-0.160230	100.000000
1781.000000	5.133544	-0.151527	100.000000
1782.000000	5.137724	-0.146294	100.000000
1783.000000	5.141923	-0.139111	100.000000
1784.000000	5.146125	-0.159677	100.000000
1785.000000	5.150339	-0.138936	100.000000
1786.000000	5.154597	-0.109790	100.000000
1787.000000	5.158896	-0.143857	100.000000
1788.000000	5.163214	-0.135039	100.000000
1789.000000	5.167539	-0.129884	100.000000
1790.000000	5.171874	-0.127915	100.000000
1791.000000	5.176214	-0.127988	100.000000
1792.000000	5.180541	-0.131092	100.000000
1793.000000	5.184842	-0.132753	100.000000
1794.000000	5.189100	-0.120687	100.000000
1795.000000	5.193302	-0.127494	100.000000
1796.000000	5.197457	-0.115366	100.000000
1797.000000	5.201571	-0.135882	100.000000
1798.000000	5.205638	-0.118437	100.000000
1799.000000	5.209654	-0.113389	100.000000
1800.000000	5.213625	-0.118273	100.000000
1801.000000	5.217546	-0.104536	100.000000
1802.000000	5.221391	-0.118076	100.000000
1803.000000	5.225142	-0.106120	100.000000
1804.000000	5.228807	-0.113063	100.000000
1805.000000	5.232394	-0.109634	100.000000
1806.000000	5.235903	-0.097525	100.000000
1807.000000	5.239346	-0.093988	100.000000
1808.000000	5.242738	-0.092221	100.000000
1809.000000	5.246074	-0.090565	100.000000
1810.000000	5.249345	-0.085054	100.000000
1811.000000	5.252556	-0.078523	100.000000
1812.000000	5.255711	-0.095126	100.000000
1813.000000	5.258815	-0.057662	100.000000
1814.000000	5.261864	-0.083152	100.000000
1815.000000	5.264864	-0.081601	100.000000
1816.000000	5.267836	-0.071258	100.000000
1817.000000	5.270788	-0.071365	100.000000
1818.000000	5.273706	-0.071131	100.000000
1819.000000	5.276574	-0.048696	100.000000
1820.000000	5.279396	-0.062319	100.000000
1821.000000	5.282179	-0.053535	100.000000
1822.000000	5.284918	-0.053743	100.000000
1823.000000	5.287622	-0.055240	100.000000
1824.000000	5.290319	-0.041595	100.000000
1825.000000	5.293022	-0.041277	100.000000
1826.000000	5.295690	-0.055071	100.000000
1827.000000	5.298290	-0.054625	100.000000
1828.000000	5.300823	-0.061745	100.000000
1829.000000	5.303303	-0.054765	100.000000
1830.000000	5.305741	-0.049308	100.000000
1831.000000	5.308148	-0.066547	100.000000
1832.000000	5.310520	-0.049276	100.000000
1833.000000	5.312847	-0.047787	100.000000
1834.000000	5.315125	-0.064578	100.000000
1835.000000	5.317360	-0.044174	100.000000
1836.000000	5.319559	-0.037284	100.000000
1837.000000	5.321735	-0.042137	100.000000
1838.000000	5.323892	-0.024850	100.000000
1839.000000	5.326031	-0.030099	100.000000
1840.000000	5.328155	-0.026885	100.000000
1841.000000	5.330256	-0.035059	100.000000
1842.000000	5.332301	-0.045394	100.000000
1843.000000	5.334287	-0.016320	100.000000
1844.000000	5.336253	-0.040057	100.000000
1845.000000	5.338214	-0.028322	100.000000
1846.000000	5.340165	-0.014399	100.000000
1847.000000	5.342106	-0.031560	100.000000
1848.000000	5.344043	-0.031525	100.000000
1849.000000	5.345983	-0.005771	100.000000
1850.000000	5.347930	-0.004025	100.000000
1851.000000	5.349895	-0.010720	100.000000
1852.000000	5.351884	-0.020926	100.000000
1853.000000	5.353911	-0.022352	100.000000
1854.000000	5.355988	-0.010421	100.000000
1855.000000	5.358118	-0.017275	100.000000
1856.000000	5.360310	-0.000124	100.000000
1857.000000	5.362571	-0.006671	100.000000
1858.000000	5.364898	-0.020415	100.000000
1859.000000	5.367294	0.003561	100.000000
1860.000000	5.369753	0.000435	100.000000
1861.000000	5.372262	0.005783	100.000000
1862.000000	5.374813	0.010662	100.000000
1863.000000	5.377401	0.027863	100.000000
1864.000000	5.380025	0.027957	100.000000
1865.000000	5.382683	0.012458	100.000000
1866.000000	5.385372	0.007691	100.000000
1867.000000	5.388072	0.016212	100.000000
1868.000000	5.390766	0.033401	100.000000
1869.000000	5.393441	0.010946	100.000000
1870.000000	5.396083	0.021896	100.000000
1871.000000	5.398682	0.033592	100.000000
1872.000000	5.401246	0.025054	100.000000
1873.000000	5.403766	0.030355	100.000000
1874.000000	5.406220	0.030265	100.000000
1875.000000	5.408601	0.037347	100.000000
1876.000000	5.410908	0.025135	100.000000
1877.000000	5.413131	0.040949	100.000000
1878.000000	5.415264	0.022078	100.000000
1879.000000	5.417305	0.027036	100.000000
1880.000000	5.419244	0.047860	100.000000
1881.000000	5.421074	0.032078	100.000000
1882.000000	5.422793	0.032085	100.000000
1883.000000	5.424401	0.028901	100.000000
1884.000000	5.425892	0.045825	100.000000
1885.000000	5.427278	0.023580	100.000000
1886.000000	5.428571	0.030426	100.000000
1887.000000	5.429774	0.047624	100.000000
1888.000000	5.430903	0.034028	100.000000
1889.000000	5.431972	0.043843	100.000000
1890.000000	5.432985	0.054506	100.000000
1891.000000	5.433944	0.054243	100.000000
1892.000000	5.434842	0.051042	100.000000
1893.000000	5.435677	0.047604	100.000000
1894.000000	5.436455	0.047461	100.000000
1895.000000	5.437193	0.064785	100.000000
1896.000000	5.437898	0.054197	100.000000
1897.000000	5.438570	0.061301	100.000000
1898.000000	5.439201	0.057904	100.000000
1899.000000	5.439783	0.066175	100.000000
1900.000000	5.440334	0.090298	100.000000
1901.000000	5.440856	0.056202	100.000000
1902.000000	5.441336	0.050836	100.000000
1903.000000	5.441768	0.065034	100.000000
1904.000000	5.442152	0.062947	100.000000
1905.000000	5.442484	0.070045	100.000000
1906.000000	5.442758	0.056106	100.000000
1907.000000	5.442979	0.057892	100.000000
1908.000000	5.443149	0.045914	100.000000
1909.000000	5.443260	0.035513	100.000000
1910.000000	5.443311	0.054440	100.000000
1911.000000	5.443310	0.057906	100.000000
1912.000000	5.443255	0.042221	100.000000
1913.000000	5.443134	0.054406	100.000000
1914.000000	5.442950	0.037158	100.000000
1915.000000	5.442711	0.052686	100.000000
1916.000000	5.442405	0.056148	100.000000
1917.000000	5.442025	0.052476	100.000000
1918.000000	5.441603	0.047347	100.000000
1919.000000	5.441167	0.054225	100.000000
1920.000000	5.440721	0.048946	100.000000
1921.000000	5.440260	0.062686	100.000000
1922.000000	5.439774	0.045599	100.000000
1923.000000	5.439258	0.069426	100.000000
1924.000000	5.438714	0.043918	100.000000
1925.000000	5.438160	0.057458	100.000000
1926.000000	5.437609	0.053853	100.000000
1927.000000	5.437065	0.064286	100.000000
1928.000000	5.436531	0.050632	100.000000
1929.000000	5.436001	0.062600	100.000000
1930.000000	5.435472	0.042229	100.000000
1931.000000	5.434938	0.049008	100.000000
1932.000000	5.434403	0.068027	100.000000
1933.000000	5.433859	0.061112	100.000000
1934.000000	5.433298	0.054054	100.000000
1935.000000	5.432717	0.047096	100.000000
1936.000000	5.432100	0.060825	100.000000
1937.000000	5.431437	0.043884	100.000000
1938.000000	5.430723	0.047264	100.000000
1939.000000	5.429971	0.048663	100.000000
1940.000000	5.429195	0.036882	100.000000
1941.000000	5.428384	0.036821	100.000000
1942.000000	5.427525	0.036680	100.000000
1943.000000	5.426621	0.046679	100.000000
1944.000000	5.425669	0.045422	100.000000
1945.000000	5.424676	0.041961	100.000000
1946.000000	5.423656	0.022890	100.000000
1947.000000	5.422609	0.028217	100.000000
1948.000000	5.421528	0.019561	100.000000
1949.000000	5.420398	0.028048	100.000000
1950.000000	5.419219	0.038269	100.000000
1951.000000	5.418009	0.031435	100.000000
1952.000000	5.416767	0.034649	100.000000
1953.000000	5.415484	0.019374	100.000000
1954.000000	5.414168	0.019365	100.000000
1955.000000	5.412839	0.015906	100.000000
1956.000000	5.411508	0.014272	100.000000
1957.000000	5.410182	0.019256	100.000000
1958.000000	5.408873	0.034552	100.000000
1959.000000	5.407586	0.005453	100.000000
1960.000000	5.406315	0.022753	100.000000
1961.000000	5.405064	0.020783	100.000000
1962.000000	5.403835	0.005544	100.000000
1963.000000	5.402625	0.005326	100.000000
1964.000000	5.401431	-0.011471	100.000000
1965.000000	5.400255	0.018924	100.000000
1966.000000	5.399103	0.017603	100.000000
1967.000000	5.397975	0.017060	100.000000
1968.000000	5.396873	0.001958	100.000000
1969.000000	5.395803	0.012230	100.000000
1970.000000	5.394768	0.000368	100.000000
1971.000000	5.393774	0.024092	100.000000
1972.000000	5.392835	-0.001596	100.000000
1973.000000	5.391945	0.007060	100.000000
1974.000000	5.391080	0.000312	100.000000
1975.000000	5.390226	0.008850	100.000000
1976.000000	5.389399	-0.006594	100.000000
1977.000000	5.388614	0.024063	100.000000
1978.000000	5.387881	-0.018723	100.000000
1979.000000	5.387204	0.005178	100.000000
1980.000000	5.386578	0.003607	100.000000
1981.000000	5.386004	0.003612	100.000000
1982.000000	5.385475	-0.016969	100.000000
1983.000000	5.384969	0.007069	100.000000
1984.000000	5.384483	-0.015225	100.000000
1985.000000	5.384026	-0.008340	100.000000
1986.000000	5.383586	0.013998	100.000000
1987.000000	5.383146	-0.009709	100.000000
1988.000000	5.382705	-0.015115	100.000000
1989.000000	5.382276	-0.013454	100.000000
1990.000000	5.381866	0.002130	100.000000
1991.000000	5.381466	-0.001473	100.000000
1992.000000	5.381068	-0.015139	100.000000
1993.000000	5.380674	-0.015136	100.000000
1994.000000	5.380286	-0.013311	100.000000
1995.000000	5.379895	-0.009864	100.000000
1996.000000	5.379492	-0.025429	100.000000
1997.000000	5.379066	-0.028823	100.000000
1998.000000	5.378621	-0.020263	100.000000
1999.000000	5.378167	-0.028797	100.000000
2000.000000	5.377683	-0.030484	100.000000
2001.000000	5.377138	-0.020416	100.000000
2002.000000	5.376542	-0.016822	100.000000
2003.000000	5.375905	-0.039347	100.000000
2004.000000	5.375225	-0.029054	100.000000
2005.000000	5.374494	-0.029098	100.000000
2006.000000	5.373717	-0.017102	100.000000
2007.000000	5.372898	-0.040437	100.000000
2008.000000	5.372038	-0.037759	100.000000
2009.000000	5.371134	-0.028919	100.000000
2010.000000	5.370198	-0.030600	100.000000
2011.000000	5.369237	-0.030719	100.000000
2012.000000	5.368255	-0.020712	100.000000
2013.000000	5.367263	-0.034014	100.000000
2014.000000	5.366265	-0.049863	100.000000
2015.000000	5.365272	-0.035856	100.000000
2016.000000	5.364308	-0.022025	100.000000
2017.000000	5.363385	-0.035867	100.000000
2018.000000	5.362497	-0.041032	100.000000
2019.000000	5.361624	-0.020058	100.000000
2020.000000	5.360772	-0.032134	100.000000
2021.000000	5.359973	-0.034118	100.000000
2022.000000	5.359233	-0.037443	100.000000
2023.000000	5.358532	-0.051125	100.000000
2024.000000	5.357869	-0.044289	100.000000
2025.000000	5.357248	-0.054569	100.000000
2026.000000	5.356670	-0.042273	100.000000
2027.000000	5.356133	-0.033856	100.000000
2028.000000	5.355634	-0.044056	100.000000
2029.000000	5.355171	-0.030334	100.000000
2030.000000	5.354748	-0.037192	100.000000
2031.000000	5.354360	-0.057725	100.000000
2032.000000	5.354001	-0.054075	100.000000
2033.000000	5.353672	-0.057769	100.000000
2034.000000	5.353377	-0.042149	100.000000
2035.000000	5.353109	-0.055800	100.000000
2036.000000	5.352852	-0.052286	100.000000
2037.000000	5.352597	-0.055804	100.000000
2038.000000	5.352339	-0.055934	100.000000
2039.000000	5.352062	-0.062782	100.000000
2040.000000	5.351759	-0.059306	100.000000
2041.000000	5.351430	-0.060959	100.000000
2042.000000	5.351063	-0.069624	100.000000
2043.000000	5.350661	-0.061012	100.000000
2044.000000	5.350228	-0.072997	100.000000
2045.000000	5.349738	-0.066221	100.000000
2046.000000	5.349163	-0.079893	100.000000
2047.000000	5.348518	-0.076362	100.000000
2048.000000	5.347803	-0.085038	100.000000
2049.000000	5.347005	-0.079855	100.000000
2050.000000	5.346124	-0.093868	100.000000
2051.000000	5.345165	-0.104130	100.000000
2052.000000	5.344114	-0.096996	100.000000
2053.000000	5.342945	-0.094047	100.000000
2054.000000	5.341635	-0.088775	100.000000
2055.000000	5.340190	-0.106599	100.000000
2056.000000	5.338630	-0.114799	100.000000
2057.000000	5.336968	-0.125160	100.000000
2058.000000	5.335238	-0.102656	100.000000
2059.000000	5.333472	-0.121789	100.000000
2060.000000	5.331668	-0.121593	100.000000
2061.000000	5.329833	-0.111535	100.000000
2062.000000	5.327994	-0.121611	100.000000
2063.000000	5.326158	-0.116791	100.000000
2064.000000	5.324307	-0.133603	100.000000
2065.000000	5.322422	-0.137288	100.000000
2066.000000	5.320502	-0.126578	100.000000
2067.000000	5.318567	-0.128987	100.000000
2068.000000	5.316634	-0.128685	100.000000
2069.000000	5.314707	-0.121913	100.000000
2070.000000	5.312799	-0.137262	100.000000
2071.000000	5.310943	-0.117027	100.000000
2072.000000	5.309149	-0.137313	100.000000
2073.000000	5.307406	-0.144504	100.000000
2074.000000	5.305701	-0.140901	100.000000
2075.000000	5.304021	-0.136216	100.000000
2076.000000	5.302350	-0.149836	100.000000
2077.000000	5.300679	-0.142928	100.000000
2078.000000	5.298996	-0.136116	100.000000
2079.000000	5.297284	-0.136228	100.000000
2080.000000	5.295536	-0.150024	100.000000
2081.000000	5.293762	-0.125901	100.000000
2082.000000	5.291964	-0.148066	100.000000
2083.000000	5.290140	-0.151683	100.000000
2084.000000	5.288293	-0.165603	100.000000
2085.000000	5.286424	-0.144911	100.000000
2086.000000	5.284531	-0.165656	100.000000
2087.000000	5.282603	-0.167464	100.000000
2088.000000	5.280617	-0.160657	100.000000
2089.000000	5.278556	-0.167428	100.000000
2090.000000	5.276426	-0.165949	100.000000
2091.000000	5.274238	-0.179586	100.000000
2092.000000	5.271994	-0.174579	100.000000
2093.000000	5.269683	-0.196720	100.000000
2094.000000	5.267293	-0.190007	100.000000
2095.000000	5.264824	-0.191998	100.000000
2096.000000	5.262278	-0.186798	100.000000
2097.000000	5.259662	-0.205794	100.000000
2098.000000	5.256982	-0.224687	100.000000
2099.000000	5.254243	-0.202706	100.000000
2100.000000	5.251449	-0.221399	100.000000
2101.000000	5.248612	-0.200837	100.000000
2102.000000	5.245768	-0.216309	100.000000
2103.000000	5.242938	-0.204331	100.000000
2104.000000	5.240119	-0.199302	100.000000
2105.000000	5.237315	-0.207736	100.000000
2106.000000	5.234507	-0.238780	100.000000
2107.000000	5.231716	-0.202949	100.000000
2108.000000	5.228982	-0.228481	100.000000
2109.000000	5.226310	-0.223733	100.000000
2110.000000	5.223706	-0.220132	100.000000
2111.000000	5.221177	-0.221820	100.000000
2112.000000	5.218711	-0.210074	100.000000
2113.000000	5.216311	-0.220393	100.000000
2114.000000	5.213977	-0.213577	100.000000
2115.000000	5.211704	-0.220503	100.000000
2116.000000	5.209490	-0.213615	100.000000
2117.000000	5.207327	-0.225525	100.000000
2118.000000	5.205202	-0.229174	100.000000
2119.000000	5.203124	-0.222484	100.000000
2120.000000	5.201101	-0.227497	100.000000
2121.000000	5.199114	-0.229220	100.000000
2122.000000	5.197142	-0.236222	100.000000
2123.000000	5.195189	-0.243128	100.000000
2124.000000	5.193275	-0.216114	100.000000
2125.000000	5.191398	-0.214199	100.000000
2126.000000	5.189560	-0.222830	100.000000
2127.000000	5.187754	-0.224240	100.000000
2128.000000	5.185960	-0.234863	100.000000
2129.000000	5.184179	-0.238201	100.000000
2130.000000	5.182433	-0.230029	100.000000
2131.000000	5.180739	-0.228153	100.000000
2132.000000	5.179099	-0.234956	100.000000
2133.000000	5.177505	-0.238493	100.000000
2134.000000	5.175965	-0.226476	100.000000
2135.000000	5.174495	-0.229745	100.000000
2136.000000	5.173102	-0.233560	100.000000
2137.000000	5.171785	-0.238572	100.000000
2138.000000	5.170548	-0.238539	100.000000
2139.000000	5.169400	-0.235107	100.000000
2140.000000	5.168341	-0.238631	100.000000
2141.000000	5.167350	-0.228188	100.000000
2142.000000	5.166421	-0.233413	100.000000
2143.000000	5.165556	-0.224948	100.000000
2144.000000	5.164755	-0.230037	100.000000
2145.000000	5.164026	-0.242030	100.000000
2146.000000	5.163370	-0.228260	100.000000
2147.000000	5.162804	-0.229948	100.000000
2148.000000	5.162337	-0.224847	100.000000
2149.000000	5.161963	-0.208008	100.000000
2150.000000	5.161681	-0.233205	100.000000
2151.000000	5.161480	-0.214449	100.000000
2152.000000	5.161348	-0.236448	100.000000
2153.000000	5.161296	-0.229885	100.000000
2154.000000	5.161341	-0.221321	100.000000
2155.000000	5.161485	-0.212737	100.000000
2156.000000	5.161720	-0.197186	100.000000
2157.000000	5.162038	-0.212637	100.000000
2158.000000	5.162424	-0.224516	100.000000
2159.000000	5.162872	-0.212561	100.000000
2160.000000	5.163375	-0.226277	100.000000
2161.000000	5.163924	-0.227734	100.000000
2162.000000	5.164519	-0.214187	100.000000
2163.000000	5.165155	-0.205730	100.000000
2164.000000	5.165822	-0.215812	100.000000
2165.000000	5.166532	-0.214345	100.000000
2166.000000	5.167295	-0.209078	100.000000
2167.000000	5.168100	-0.188668	100.000000
2168.000000	5.168935	-0.198666	100.000000
2169.000000	5.169801	-0.190254	100.000000
2170.000000	5.170711	-0.193596	100.000000
2171.000000	5.171655	-0.205620	100.000000
2172.000000	5.172615	-0.191955	100.000000
2173.000000	5.173593	-0.200641	100.000000
2174.000000	5.174598	-0.201896	100.000000
2175.000000	5.175639	-0.204120	100.000000
2176.000000	5.176728	-0.190020	100.000000
2177.000000	5.177874	-0.180024	100.000000
2178.000000	5.179072	-0.191872	100.000000
2179.000000	5.180302	-0.173098	100.000000
2180.000000	5.181543	-0.184961	100.000000
2181.000000	5.182797	-0.171330	100.000000
2182.000000	5.184052	-0.184861	100.000000
2183.000000	5.185300	-0.173332	100.000000
2184.000000	5.186533	-0.176398	100.000000
2185.000000	5.187736	-0.180092	100.000000
2186.000000	5.188913	-0.174727	100.000000
2187.000000	5.190068	-0.157415	100.000000
2188.000000	5.191211	-0.176566	100.000000
2189.000000	5.192343	-0.178264	100.000000
2190.000000	5.193446	-0.167881	100.000000
2191.000000	5.194520	-0.159426	100.000000
2192.000000	5.195587	-0.171694	100.000000
2193.000000	5.196648	-0.167926	100.000000
2194.000000	5.197672	-0.174965	100.000000
2195.000000	5.198633	-0.179820	100.000000
2196.000000	5.199525	-0.174930	100.000000
2197.000000	5.200349	-0.159451	100.000000
2198.000000	5.201076	-0.164495	100.000000
2199.000000	5.201702	-0.171538	100.000000
2200.000000	5.202273	-0.152832	100.000000
2201.000000	5.202816	-0.166243	100.000000
2202.000000	5.203320	-0.176471	100.000000
2203.000000	5.203769	-0.169607	100.000000
2204.000000	5.204164	-0.178158	100.000000
2205.000000	5.204514	-0.162910	100.000000
2206.000000	5.204836	-0.174970	100.000000
2207.000000	5.205138	-0.150967	100.000000
2208.000000	5.205414	-0.168210	100.000000
2209.000000	5.205673	-0.152538	100.000000
2210.000000	5.205927	-0.152885	100.000000
2211.000000	5.206183	-0.164529	100.000000
2212.000000	5.206439	-0.166167	100.000000
2213.000000	5.206686	-0.161096	100.000000
2214.000000	5.206920	-0.154315	100.000000
2215.000000	5.207159	-0.152533	100.000000
2216.000000	5.207407	-0.154299	100.000000
2217.000000	5.207663	-0.159199	100.000000
2218.000000	5.207942	-0.140345	100.000000
2219.000000	5.208261	-0.149036	100.000000
2220.000000	5.208631	-0.145760	100.000000
2221.000000	5.209055	-0.150691	100.000000
2222.000000	5.209543	-0.140418	100.000000
2223.000000	5.210107	-0.149024	100.000000
2224.000000	5.210744	-0.143882	100.000000
2225.000000	5.211443	-0.136878	100.000000
2226.000000	5.212214	-0.137103	100.000000
2227.000000	5.213064	-0.143842	100.000000
2228.000000	5.213988	-0.140452	100.000000
2229.000000	5.214982	-0.145413	100.000000
2230.000000	5.216054	-0.121640	100.000000
2231.000000	5.217199	-0.121429	100.000000
2232.000000	5.218413	-0.104186	100.000000
2233.000000	5.219713	-0.124750	100.000000
2234.000000	5.221110	-0.128279	100.000000
2235.000000	5.222610	-0.117940	100.000000
2236.000000	5.224205	-0.111009	100.000000
2237.000000	5.225877	-0.117646	100.000000
2238.000000	5.227625	-0.107443	100.000000
2239.000000	5.229443	-0.117397	100.000000
2240.000000	5.231318	-0.098424	100.000000
2241.000000	5.233233	-0.105410	100.000000
2242.000000	5.235192	-0.103737	100.000000
2243.000000	5.237207	-0.108576	100.000000
2244.000000	5.239270	-0.108411	100.000000
2245.000000	5.241373	-0.101907	100.000000
2246.000000	5.243517	-0.083102	100.000000
2247.000000	5.245697	-0.103248	100.000000
2248.000000	5.247893	-0.089589	100.000000
2249.000000	5.250097	-0.096487	100.000000
2250.000000	5.252326	-0.081042	100.000000
2251.000000	5.254565	-0.079151	100.000000
2252.000000	5.256779	-0.068860	100.000000
2253.000000	5.258973	-0.075838	100.000000
2254.000000	5.261167	-0.068838	100.000000
2255.000000	5.263369	-0.067157	100.000000
2256.000000	5.265575	-0.091075	100.000000
2257.000000	5.267783	-0.068689	100.000000
2258.000000	5.270002	-0.054960	100.000000
2259.000000	5.272224	-0.068726	100.000000
2260.000000	5.274445	-0.068544	100.000000
2261.000000	5.276661	-0.075326	100.000000
2262.000000	5.278866	-0.054946	100.000000
2263.000000	5.281070	-0.051423	100.000000
2264.000000	5.283272	-0.063375	100.000000
2265.000000	5.285458	-0.053271	100.000000
2266.000000	5.287630	-0.054938	100.000000
2267.000000	5.289788	-0.042842	100.000000
2268.000000	5.291934	-0.059826	100.000000
2269.000000	5.294082	-0.049670	100.000000
2270.000000	5.296243	-0.041087	100.000000
2271.000000	5.298409	-0.034294	100.000000
2272.000000	5.300573	-0.035817	100.000000
2273.000000	5.302734	-0.027136	100.000000
2274.000000	5.304892	-0.025385	100.000000
2275.000000	5.307048	-0.030367	100.000000
2276.000000	5.309209	-0.027175	100.000000
2277.000000	5.311397	-0.025482	100.000000
2278.000000	5.313621	-0.012958	100.000000
2279.000000	5.315873	-0.023248	100.000000
2280.000000	5.318130	-0.036970	100.000000
2281.000000	5.320380	-0.007936	100.000000
2282.000000	5.322623	-0.004464	100.000000
2283.000000	5.324865	-0.001059	100.000000
2284.000000	5.327114	0.004227	100.000000
2285.000000	5.329371	0.007883	100.000000
2286.000000	5.331630	0.004416	100.000000
2287.000000	5.333894	-0.009234	100.000000
2288.000000	5.336160	0.011195	100.000000
2289.000000	5.338422	0.021781	100.000000
2290.000000	5.340673	0.006300	100.000000
2291.000000	5.342911	0.006824	100.000000
2292.000000	5.345136	0.013473	100.000000
2293.000000	5.347345	0.028552	100.000000
2294.000000	5.349530	0.021853	100.000000
2295.000000	5.351665	0.009794	100.000000
2296.000000	5.353732	0.006688	100.000000
2297.000000	5.355734	0.025271	100.000000
2298.000000	5.357684	0.013335	100.000000
2299.000000	5.359595	0.016947	100.000000
2300.000000	5.361470	0.016956	100.000000
2301.000000	5.363303	0.027348	100.000000
2302.000000	5.365093	0.037385	100.000000
2303.000000	5.366851	0.015266	100.000000
2304.000000	5.368581	0.022134	100.000000
2305.000000	5.370281	0.041231	100.000000
2306.000000	5.371949	0.034209	100.000000
2307.000000	5.373598	0.037684	100.000000
2308.000000	5.375231	0.049647	100.000000
2309.000000	5.376846	0.035661	100.000000
2310.000000	5.378448	0.054768	100.000000
2311.000000	5.380045	0.038056	100.000000
2312.000000	5.381647	0.044589	100.000000
2313.000000	5.383258	0.053164	100.000000
2314.000000	5.384884	0.066893	100.000000
2315.000000	5.386544	0.056913	100.000000
2316.000000	5.388258	0.065171	100.000000
2317.000000	5.390012	0.063835	100.000000
2318.000000	5.391779	0.073891	100.000000
2319.000000	5.393551	0.062186	100.000000
2320.000000	5.395318	0.070563	100.000000
2321.000000	5.397079	0.086235	100.000000
2322.000000	5.398849	0.082633	100.000000
2323.000000	5.400648	0.079343	100.000000
2324.000000	5.402482	0.082600	100.000000
2325.000000	5.404334	0.074368	100.000000
2326.000000	5.406184	0.081059	100.000000
2327.000000	5.408035	0.093223	100.000000
2328.000000	5.409896	0.087861	100.000000
2329.000000	5.411754	0.100051	100.000000
2330.000000	5.413606	0.076058	100.000000
2331.000000	5.415444	0.091540	100.000000
2332.000000	5.417254	0.088116	100.000000
2333.000000	5.419025	0.095121	100.000000
2334.000000	5.420758	0.095247	100.000000
2335.000000	5.422463	0.103583	100.000000
2336.000000	5.424135	0.102070	100.000000
2337.000000	5.425762	0.103850	100.000000
2338.000000	5.427345	0.086674	100.000000
2339.000000	5.428881	0.103988	100.000000
2340.000000	5.430371	0.090155	100.000000
2341.000000	5.431823	0.096996	100.000000
2342.000000	5.433250	0.102172	100.000000
2343.000000	5.434646	0.100478	100.000000
2344.000000	5.435987	0.110732	100.000000
2345.000000	5.437275	0.095560	100.000000
2346.000000	5.438532	0.128061	100.000000
2347.000000	5.439763	0.113940	100.000000
2348.000000	5.440967	0.111030	100.000000
2349.000000	5.442142	0.116091	100.000000
2350.000000	5.443288	0.123155	100.000000
2351.000000	5.444397	0.112754	100.000000
2352.000000	5.445463	0.117997	100.000000
2353.000000	5.446486	0.128019	100.000000
2354.000000	5.447467	0.116329	100.000000
2355.000000	5.448410	0.128094	100.000000
2356.000000	5.449323	0.129838	100.000000
2357.000000	5.450211	0.121189	100.000000
2358.000000	5.451073	0.117890	100.000000
2359.000000	5.451900	0.123260	100.000000
2360.000000	5.452693	0.123098	100.000000
2361.000000	5.453460	0.131675	100.000000
2362.000000	5.454202	0.117870	100.000000
2363.000000	5.454930	0.143578	100.000000
2364.000000	5.455654	0.129804	100.000000
2365.000000	5.456378	0.140258	100.000000
2366.000000	5.457087	0.135328	100.000000
2367.000000	5.457779	0.135063	100.000000
2368.000000	5.458488	0.154188	100.000000
2369.000000	5.459236	0.155716	100.000000
2370.000000	5.460029	0.143944	100.000000
2371.000000	5.460866	0.148904	100.000000
2372.000000	5.461733	0.160916	100.000000
2373.000000	5.462628	0.143781	100.000000
2374.000000	5.463560	0.157697	100.000000
2375.000000	5.464529	0.142259	100.000000
2376.000000	5.465519	0.157799	100.000000
2377.000000	5.466531	0.149187	100.000000
2378.000000	5.467570	0.154509	100.000000
2379.000000	5.468634	0.166303	100.000000
2380.000000	5.469730	0.152850	100.000000
2381.000000	5.470872	0.163155	100.000000
2382.000000	5.472066	0.164882	100.000000
2383.000000	5.473295	0.166794	100.000000
2384.000000	5.474544	0.178778	100.000000
2385.000000	5.475813	0.163591	100.000000
2386.000000	5.477100	0.175476	100.000000
2387.000000	5.478400	0.177213	100.000000
2388.000000	5.479711	0.185806	100.000000
2389.000000	5.481026	0.192697	100.000000
2390.000000	5.482346	0.176259	100.000000
2391.000000	5.483680	0.179287	100.000000
2392.000000	5.485034	0.194920	100.000000
2393.000000	5.486408	0.204828	100.000000
2394.000000	5.487808	0.199903	100.000000
2395.000000	5.489228	0.206890	100.000000
2396.000000	5.490670	0.181231	100.000000
2397.000000	5.492160	0.196596	100.000000
2398.000000	5.493706	0.210605	100.000000
2399.000000	5.495291	0.214104	100.000000
2400.000000	5.496912	0.215683	100.000000
2401.000000	5.498580	0.222732	100.000000
2402.000000	5.500284	0.227825	100.000000
2403.000000	5.502022	0.226194	100.000000
2404.000000	5.503798	0.215926	100.000000
2405.000000	5.505610	0.221263	100.000000
2406.000000	5.507465	0.209098	100.000000
2407.000000	5.509370	0.216055	100.000000
2408.000000	5.511310	0.223177	100.000000
2409.000000	5.513268	0.226797	100.000000
2410.000000	5.515223	0.212835	100.000000
2411.000000	5.517175	0.214658	100.000000
2412.000000	5.519146	0.214815	100.000000
2413.000000	5.521141	0.219969	100.000000
2414.000000	5.523157	0.233845	100.000000
2415.000000	5.525209	0.220385	100.000000
2416.000000	5.527302	0.230579	100.000000
2417.000000	5.529444	0.235808	100.000000
2418.000000	5.531636	0.244246	100.000000
2419.000000	5.533880	0.253145	100.000000
2420.000000	5.536186	0.254952	100.000000
2421.000000	5.538556	0.238021	100.000000
2422.000000	5.540980	0.239683	100.000000
2423.000000	5.543442	0.217527	100.000000
2424.000000	5.545937	0.251891	100.000000
2425.000000	5.548472	0.231417	100.000000
2426.000000	5.551049	0.246864	100.000000
2427.000000	5.553662	0.243657	100.000000
2428.000000	5.556307	0.257490	100.000000
2429.000000	5.558984	0.250708	100.000000
2430.000000	5.561689	0.250851	100.000000
2431.000000	5.564413	0.256020	100.000000
2432.000000	5.567158	0.262859	100.000000
2433.000000	5.569921	0.263072	100.000000
2434.000000	5.572690	0.256354	100.000000
2435.000000	5.575443	0.244607	100.000000
2436.000000	5.578175	0.278897	100.000000
2437.000000	5.580903	0.266750	100.000000
2438.000000	5.583638	0.267051	100.000000
2439.000000	5.586360	0.260199	100.000000
2440.000000	5.589056	0.269095	100.000000
2441.000000	5.591737	0.269072	100.000000
2442.000000	5.594422	0.274180	100.000000
2443.000000	5.597101	0.277659	100.000000
2444.000000	5.599755	0.264176	100.000000
2445.000000	5.602387	0.279625	100.000000
2446.000000	5.604998	0.276398	100.000000
2447.000000	5.607598	0.283277	100.000000
2448.000000	5.610199	0.290263	100.000000
2449.000000	5.612796	0.278198	100.000000
2450.000000	5.615380	0.274860	100.000000
2451.000000	5.617942	0.280242	100.000000
2452.000000	5.620475	0.290476	100.000000
2453.000000	5.622975	0.297232	100.000000
2454.000000	5.625461	0.292381	100.000000
2455.000000	5.627951	0.288762	100.000000
2456.000000	5.630439	0.294118	100.000000
2457.000000	5.632917	0.290794	100.000000
2458.000000	5.635387	0.306122	100.000000
2459.000000	5.637856	0.290700	100.000000
2460.000000	5.640319	0.297735	100.000000
2461.000000	5.642774	0.313152	100.000000
2462.000000	5.645231	0.304711	100.000000
2463.000000	5.647693	0.302859	100.000000
2464.000000	5.650157	0.294701	100.000000
2465.000000	5.652632	0.342545	100.000000
2466.000000	5.655115	0.320389	100.000000
2467.000000	5.657606	0.305156	100.000000
2468.000000	5.660114	0.305189	100.000000
2469.000000	5.662649	0.314034	100.000000
2470.000000	5.665210	0.324044	100.000000
2471.000000	5.667795	0.329377	100.000000
2472.000000	5.670401	0.327739	100.000000
2473.000000	5.673031	0.334736	100.000000
2474.000000	5.675688	0.324657	100.000000
2475.000000	5.678363	0.336718	100.000000
2476.000000	5.681055	0.338346	100.000000
2477.000000	5.683761	0.338661	100.000000
2478.000000	5.686485	0.355586	100.000000
2479.000000	5.689240	0.364415	100.000000
2480.000000	5.692030	0.343955	100.000000
2481.000000	5.694833	0.333820	100.000000
2482.000000	5.697622	0.351289	100.000000
2483.000000	5.700397	0.359727	100.000000
2484.000000	5.703177	0.352833	100.000000
2485.000000	5.705977	0.354964	100.000000
2486.000000	5.708790	0.351383	100.000000
2487.000000	5.711603	0.348148	100.000000
2488.000000	5.714423	0.361948	100.000000
2489.000000	5.717265	0.365315	100.000000
2490.000000	5.720135	0.360189	100.000000
2491.000000	5.723031	0.348234	100.000000
2492.000000	5.725948	0.377699	100.000000
2493.000000	5.728889	0.376031	100.000000
2494.000000	5.731854	0.381208	100.000000
2495.000000	5.734836	0.362403	100.000000
2496.000000	5.737821	0.367688	100.000000
2497.000000	5.740798	0.384843	100.000000
2498.000000	5.743782	0.367768	100.000000
2499.000000	5.746784	0.381946	100.000000
2500.000000	5.749800	0.383492	100.000000
2501.000000	5.752824	0.373345	100.000000
2502.000000	5.755858	0.395579	100.000000
2503.000000	5.758908	0.398983	100.000000
2504.000000	5.761979	0.381837	100.000000
2505.000000	5.765076	0.373589	100.000000
2506.000000	5.768195	0.385491	100.000000
2507.000000	5.771333	0.399544	100.000000
2508.000000	5.774483	0.387461	100.000000
2509.000000	5.777638	0.404642	100.000000
2510.000000	5.780808	0.397984	100.000000
2511.000000	5.783994	0.398083	100.000000
2512.000000	5.787184	0.413411	100.000000
2513.000000	5.790383	0.403404	100.000000
2514.000000	5.793586	0.394544	100.000000
2515.000000	5.796780	0.420686	100.000000
2516.000000	5.799951	0.413791	100.000000
2517.000000	5.803087	0.403558	100.000000
2518.000000	5.806209	0.402110	100.000000
2519.000000	5.809321	0.403749	100.000000
2520.000000	5.812411	0.414435	100.000000
2521.000000	5.815460	0.426324	100.000000
2522.000000	5.818473	0.412507	100.000000
2523.000000	5.821474	0.417870	100.000000
2524.000000	5.824467	0.410910	100.000000
2525.000000	5.827438	0.407734	100.000000
2526.000000	5.830372	0.418071	100.000000
2527.000000	5.833256	0.406152	100.000000
2528.000000	5.836091	0.416254	100.000000
2529.000000	5.838896	0.414891	100.000000
2530.000000	5.841680	0.420055	100.000000
2531.000000	5.844430	0.416770	100.000000
2532.000000	5.847140	0.418653	100.000000
2533.000000	5.849809	0.432098	100.000000
2534.000000	5.852439	0.425457	100.000000
2535.000000	5.855049	0.432316	100.000000
2536.000000	5.857643	0.413601	100.000000
2537.000000	5.860205	0.420541	100.000000
2538.000000	5.862730	0.436036	100.000000
2539.000000	5.865220	0.432701	100.000000
2540.000000	5.867674	0.444649	100.000000
2541.000000	5.870103	0.424302	100.000000
2542.000000	5.872511	0.421146	100.000000
2543.000000	5.874900	0.453570	100.000000
2544.000000	5.877277	0.431352	100.000000
2545.000000	5.879650	0.414376	100.000000
2546.000000	5.882017	0.433120	100.000000
2547.000000	5.884368	0.434926	100.000000
2548.000000	5.886694	0.433483	100.000000
2549.000000	5.888981	0.455529	100.000000
2550.000000	5.891212	0.445278	100.000000
2551.000000	5.893400	0.436730	100.000000
2552.000000	5.895568	0.435227	100.000000
2553.000000	5.897722	0.412803	100.000000
2554.000000	5.899862	0.431759	100.000000
2555.000000	5.901978	0.435407	100.000000
2556.000000	5.904064	0.431777	100.000000
2557.000000	5.906130	0.428428	100.000000
2558.000000	5.908187	0.423288	100.000000
2559.000000	5.910232	0.442281	100.000000
2560.000000	5.912262	0.433780	100.000000
2561.000000	5.914283	0.435545	100.000000
2562.000000	5.916300	0.439058	100.000000
2563.000000	5.918322	0.447534	100.000000
2564.000000	5.920347	0.439129	100.000000
2565.000000	5.922373	0.440937	100.000000
2566.000000	5.924418	0.446285	100.000000
2567.000000	5.926495	0.453035	100.000000
2568.000000	5.928592	0.451452	100.000000
2569.000000	5.930701	0.441172	100.000000
2570.000000	5.932811	0.439623	100.000000
2571.000000	5.934912	0.463467	100.000000
2572.000000	5.937008	0.437774	100.000000
2573.000000	5.939090	0.443096	100.000000
2574.000000	5.941161	0.429244	100.000000
2575.000000	5.943232	0.451753	100.000000
2576.000000	5.945300	0.434732	100.000000
2577.000000	5.947369	0.446696	100.000000
2578.000000	5.949446	0.445152	100.000000
2579.000000	5.951517	0.443599	100.000000
2580.000000	5.953566	0.452113	100.000000
2581.000000	5.955602	0.453863	100.000000
2582.000000	5.957632	0.450306	100.000000
2583.000000	5.959664	0.448883	100.000000
2584.000000	5.961704	0.436252	100.000000
2585.000000	5.963750	0.454204	100.000000
2586.000000	5.965808	0.445677	100.000000
2587.000000	5.967866	0.443963	100.000000
2588.000000	5.969914	0.443911	100.000000
2589.000000	5.971956	0.444168	100.000000
2590.000000	5.973987	0.414897	100.000000
2591.000000	5.976008	0.452941	100.000000
2592.000000	5.978014	0.444469	100.000000
2593.000000	5.979998	0.449564	100.000000
2594.000000	5.981963	0.444536	100.000000
2595.000000	5.983926	0.449699	100.000000
2596.000000	5.985909	0.448018	100.000000
2597.000000	5.987918	0.455029	100.000000
2598.000000	5.989953	0.456745	100.000000
2599.000000	5.992025	0.465229	100.000000
2600.000000	5.994129	0.445087	100.000000
2601.000000	5.996256	0.448492	100.000000
2602.000000	5.998412	0.445112	100.000000
2603.000000	6.000596	0.453881	100.000000
2604.000000	6.002804	0.455609	100.000000
2605.000000	6.005056	0.462650	100.000000
2606.000000	6.007359	0.454135	100.000000
2607.000000	6.009700	0.453811	100.000000
2608.000000	6.012089	0.460854	100.000000
2609.000000	6.014543	0.452543	100.000000
2610.000000	6.017058	0.464315	100.000000
2611.000000	6.019644	0.461248	100.000000
2612.000000	6.022296	0.466417	100.000000
2613.000000	6.024998	0.465002	100.000000
2614.000000	6.027757	0.459544	100.000000
2615.000000	6.030583	0.451447	100.000000
2616.000000	6.033463	0.465067	100.000000
2617.000000	6.036394	0.466935	100.000000
2618.000000	6.039384	0.473758	100.000000
2619.000000	6.042431	0.470481	100.000000
2620.000000	6.045523	0.474279	100.000000
2621.000000	6.048659	0.476055	100.000000
2622.000000	6.051847	0.481047	100.000000
2623.000000	6.055084	0.462259	100.000000
2624.000000	6.058367	0.491655	100.000000
2625.000000	6.061696	0.481598	100.000000
2626.000000	6.065051	0.500628	100.000000
2627.000000	6.068420	0.473018	100.000000
2628.000000	6.071809	0.488750	100.000000
2629.000000	6.075229	0.483586	100.000000
2630.000000	6.078683	0.482231	100.000000
2631.000000	6.082158	0.487246	100.000000
2632.000000	6.085636	0.487167	100.000000
2633.000000	6.089106	0.478792	100.000000
2634.000000	6.092556	0.485802	100.000000
2635.000000	6.095971	0.482350	100.000000
2636.000000	6.099350	0.473765	100.000000
2637.000000	6.102691	0.482290	100.000000
2638.000000	6.105982	0.487612	100.000000
2639.000000	6.109232	0.486136	100.000000
2640.000000	6.112437	0.497994	100.000000
2641.000000	6.115584	0.477726	100.000000
2642.000000	6.118666	0.489625	100.000000
2643.000000	6.121679	0.477602	100.000000
2644.000000	6.124624	0.494812	100.000000
2645.000000	6.127498	0.486150	100.000000
2646.000000	6.130303	0.472487	100.000000
2647.000000	6.133047	0.494675	100.000000
2648.000000	6.135720	0.474234	100.000000
2649.000000	6.138320	0.487654	100.000000
2650.000000	6.140866	0.463755	100.000000
2651.000000	6.143344	0.461657	100.000000
2652.000000	6.145746	0.444369	100.000000
2653.000000	6.148078	0.419604	100.000000
2654.000000	6.150311	0.405475	100.000000
2655.000000	6.152385	0.395949	100.000000
2656.000000	6.154230	0.414381	100.000000
2657.000000	6.155753	0.431204	100.000000
2658.000000	6.156839	0.448344	100.000000
2659.000000	6.157390	0.448312	100.000000
2660.000000	6.157348	0.429885	100.000000
2661.000000	6.156727	0.450416	100.000000
2662.000000	6.155619	0.416280	100.000000
2663.000000	6.154142	0.433711	100.000000
2664.000000	6.152435	0.428486	100.000000
2665.000000	6.150636	0.415189	100.000000
2666.000000	6.148844	0.441128	100.000000
2667.000000	6.147128	0.446799	100.000000
2668.000000	6.145541	0.462079	100.000000
2669.000000	6.144115	0.476054	100.000000
2670.000000	6.142874	0.467518	100.000000
2671.000000	6.141879	0.471328	100.000000
2672.000000	6.141203	0.479978	100.000000
2673.000000	6.140892	0.494175	100.000000
2674.000000	6.140943	0.480788	100.000000
2675.000000	6.141319	0.480484	100.000000
2676.000000	6.141985	0.480374	100.000000
2677.000000	6.142893	0.506034	100.000000
2678.000000	6.144008	0.495879	100.000000
2679.000000	6.145306	0.499386	100.000000
2680.000000	6.146763	0.501200	100.000000
2681.000000	6.148350	0.506758	100.000000
2682.000000	6.150016	0.489431	100.000000
2683.000000	6.151721	0.502885	100.000000
2684.000000	6.153464	0.493244	100.000000
2685.000000	6.155257	0.482842	100.000000
2686.000000	6.157136	0.491623	100.000000
2687.000000	6.159129	0.488458	100.000000
2688.000000	6.161225	0.483541	100.000000
2689.000000	6.163405	0.502169	100.000000
2690.000000	6.165646	0.495308	100.000000
2691.000000	6.167923	0.488342	100.000000
2692.000000	6.170231	0.481717	100.000000
2693.000000	6.172578	0.474871	100.000000
2694.000000	6.174981	0.473384	100.000000
2695.000000	6.177434	0.483946	100.000000
2696.000000	6.179901	0.465037	100.000000
2697.000000	6.182333	0.471822	100.000000
2698.000000	6.184687	0.476880	100.000000
2699.000000	6.186936	0.482158	100.000000
2700.000000	6.189069	0.487104	100.000000
2701.000000	6.191078	0.478784	100.000000
2702.000000	6.192955	0.466577	100.000000
2703.000000	6.194686	0.458064	100.000000
2704.000000	6.196252	0.468235	100.000000
2705.000000	6.197666	0.469774	100.000000
2706.000000	6.198961	0.463019	100.000000
2707.000000	6.200158	0.485736	100.000000
2708.000000	6.201272	0.464960	100.000000
2709.000000	6.202325	0.471908	100.000000
2710.000000	6.203323	0.463293	100.000000
2711.000000	6.204246	0.468144	100.000000
2712.000000	6.205088	0.480088	100.000000
2713.000000	6.205868	0.476898	100.000000
2714.000000	6.206606	0.473319	100.000000
2715.000000	6.207310	0.465075	100.000000
2716.000000	6.207988	0.475125	100.000000
2717.000000	6.208658	0.473501	100.000000
2718.000000	6.209315	0.466634	100.000000
2719.000000	6.209934	0.468283	100.000000
2720.000000	6.210474	0.469708	100.000000
2721.000000	6.210895	0.459890	100.000000
2722.000000	6.211194	0.458107	100.000000
2723.000000	6.211374	0.447728	100.000000
2724.000000	6.211429	0.447507	100.000000
2725.000000	6.211371	0.442654	100.000000
2726.000000	6.211237	0.459841	100.000000
2727.000000	6.211061	0.454579	100.000000
2728.000000	6.210856	0.465060	100.000000
2729.000000	6.210620	0.449435	100.000000
2730.000000	6.210348	0.457806	100.000000
2731.000000	6.210023	0.450827	100.000000
2732.000000	6.209636	0.450786	100.000000
2733.000000	6.209188	0.449190	100.000000
2734.000000	6.208667	0.438920	100.000000
2735.000000	6.208073	0.454228	100.000000
2736.000000	6.207418	0.442461	100.000000
2737.000000	6.206704	0.449061	100.000000
2738.000000	6.205934	0.447367	100.000000
2739.000000	6.205132	0.442191	100.000000
2740.000000	6.204308	0.448891	100.000000
2741.000000	6.203450	0.447081	100.000000
2742.000000	6.202547	0.452205	100.000000
2743.000000	6.201582	0.453764	100.000000
2744.000000	6.200536	0.450342	100.000000
2745.000000	6.199398	0.455324	100.000000
2746.000000	6.198185	0.462386	100.000000
2747.000000	6.196914	0.465385	100.000000
2748.000000	6.195611	0.462375	100.000000
2749.000000	6.194317	0.458630	100.000000
2750.000000	6.193059	0.460396	100.000000
2751.000000	6.191841	0.461975	100.000000
2752.000000	6.190662	0.463570	100.000000
2753.000000	6.189524	0.456648	100.000000
2754.000000	6.188428	0.472206	100.000000
2755.000000	6.187366	0.468590	100.000000
2756.000000	6.186339	0.472446	100.000000
2757.000000	6.185347	0.485590	100.000000
2758.000000	6.184395	0.474027	100.000000
2759.000000	6.183484	0.489078	100.000000
2760.000000	6.182603	0.490798	100.000000
2761.000000	6.181753	0.471732	100.000000
2762.000000	6.180937	0.482303	100.000000
2763.000000	6.180160	0.483879	100.000000
2764.000000	6.179415	0.488981	100.000000
2765.000000	6.178686	0.488981	100.000000
2766.000000	6.177966	0.488868	100.000000
2767.000000	6.177263	0.490634	100.000000
2768.000000	6.176576	0.492427	100.000000
2769.000000	6.175916	0.499234	100.000000
2770.000000	6.175298	0.490356	100.000000
2771.000000	6.174724	0.488935	100.000000
2772.000000	6.174191	0.502745	100.000000
2773.000000	6.173710	0.506222	100.000000
2774.000000	6.173305	0.505763	100.000000
2775.000000	6.172959	0.485614	100.000000
2776.000000	6.172644	0.497340	100.000000
2777.000000	6.172336	0.502571	100.000000
2778.000000	6.172004	0.495757	100.000000
2779.000000	6.171650	0.509511	100.000000
2780.000000	6.171292	0.473494	100.000000
2781.000000	6.170927	0.487118	100.000000
2782.000000	6.170556	0.500764	100.000000
2783.000000	6.170192	0.485305	100.000000
2784.000000	6.169835	0.497055	100.000000
2785.000000	6.169481	0.488551	100.000000
2786.000000	6.169137	0.486924	100.000000
2787.000000	6.168804	0.498942	100.000000
2788.000000	6.168470	0.485037	100.000000
2789.000000	6.168136	0.510765	100.000000
2790.000000	6.167809	0.491852	100.000000
2791.000000	6.167490	0.493595	100.000000
2792.000000	6.167177	0.495386	100.000000
2793.000000	6.166869	0.486903	100.000000
2794.000000	6.166574	0.498669	100.000000
2795.000000	6.166316	0.512549	100.000000
2796.000000	6.166116	0.502110	100.000000
2797.000000	6.165967	0.517473	100.000000
2798.000000	6.165856	0.505357	100.000000
2799.000000	6.165777	0.498684	100.000000
2800.000000	6.165725	0.512136	100.000000
2801.000000	6.165710	0.514137	100.000000
2802.000000	6.165737	0.532797	100.000000
2803.000000	6.165794	0.514014	100.000000
2804.000000	6.165875	0.524211	100.000000
2805.000000	6.165992	0.524453	100.000000
2806.000000	6.166156	0.531040	100.000000
2807.000000	6.166363	0.536416	100.000000
2808.000000	6.166596	0.532738	100.000000
2809.000000	6.166849	0.543366	100.000000
2810.000000	6.167127	0.544666	100.000000
2811.000000	6.167448	0.546492	100.000000
2812.000000	6.167823	0.532769	100.000000
2813.000000	6.168243	0.536489	100.000000
2814.000000	6.168698	0.551736	100.000000
2815.000000	6.169187	0.536194	100.000000
2816.000000	6.169698	0.551483	100.000000
2817.000000	6.170216	0.532877	100.000000
2818.000000	6.170746	0.558476	100.000000
2819.000000	6.171295	0.534651	100.000000
2820.000000	6.171852	0.550105	100.000000
2821.000000	6.172394	0.527913	100.000000
2822.000000	6.172911	0.560348	100.000000
2823.000000	6.173397	0.544824	100.000000
2824.000000	6.173847	0.546694	100.000000
2825.000000	6.174256	0.554943	100.000000
2826.000000	6.174632	0.548459	100.000000
2827.000000	6.174968	0.550209	100.000000
