0.000000	0.064996	-0.017278	100.000000
1.000000	0.064717	-0.000189	100.000000
2.000000	0.063998	-0.013910	100.000000
3.000000	0.062915	-0.008860	100.000000
4.000000	0.061535	-0.029620	100.000000
5.000000	0.059916	-0.026174	100.000000
6.000000	0.058108	-0.029536	100.000000
7.000000	0.056139	-0.016014	100.000000
8.000000	0.054040	-0.003822	100.000000
9.000000	0.051843	-0.009163	100.000000
10.000000	0.049584	-0.031249	100.000000
11.000000	0.047300	-0.028098	100.000000
12.000000	0.045011	-0.033077	100.000000
13.000000	0.042716	-0.015846	100.000000
14.000000	0.040413	-0.009049	100.000000
15.000000	0.038118	-0.005655	100.000000
16.000000	0.035857	-0.029464	100.000000
17.000000	0.033657	-0.017473	100.000000
18.000000	0.031535	-0.012341	100.000000
19.000000	0.029508	-0.031294	100.000000
20.000000	0.027594	-0.029578	100.000000
21.000000	0.025805	-0.026007	100.000000
22.000000	0.024140	-0.010765	100.000000
23.000000	0.022588	-0.022681	100.000000
24.000000	0.021142	-0.031419	100.000000
25.000000	0.019806	-0.032837	100.000000
26.000000	0.018588	-0.029491	100.000000
27.000000	0.017490	-0.032886	100.000000
28.000000	0.016505	-0.039980	100.000000
29.000000	0.015634	-0.032888	100.000000
30.000000	0.014872	-0.027968	100.000000
31.000000	0.014209	-0.048493	100.000000
32.000000	0.013632	-0.050050	100.000000
33.000000	0.013119	-0.033033	100.000000
34.000000	0.012661	-0.019338	100.000000
35.000000	0.012268	-0.041733	100.000000
36.000000	0.011950	-0.038103	100.000000
37.000000	0.011683	-0.031278	100.000000
38.000000	0.011445	-0.044958	100.000000
39.000000	0.011252	-0.036499	100.000000
40.000000	0.011118	-0.043322	100.000000
41.000000	0.011030	-0.032760	100.000000
42.000000	0.010994	-0.043282	100.000000
43.000000	0.011023	-0.024309	100.000000
44.000000	0.011119	-0.041628	100.000000
45.000000	0.011276	-0.022549	100.000000
46.000000	0.011494	-0.029595	100.000000
47.000000	0.011753	-0.026323	100.000000
48.000000	0.012039	-0.051861	100.000000
49.000000	0.012357	-0.041657	100.000000
50.000000	0.012692	-0.045203	100.000000
51.000000	0.013022	-0.022986	100.000000
52.000000	0.013347	-0.034784	100.000000
53.000000	0.013664	-0.036698	100.000000
54.000000	0.013963	-0.046775	100.000000
55.000000	0.014235	-0.034801	100.000000
56.000000	0.014477	-0.015936	100.000000
57.000000	0.014690	-0.024443	100.000000
58.000000	0.014874	-0.022635	100.000000
59.000000	0.015033	-0.027808	100.000000
60.000000	0.015176	-0.027589	100.000000
61.000000	0.015304	-0.026144	100.000000
62.000000	0.015423	-0.026092	100.000000
63.000000	0.015542	-0.031145	100.000000
64.000000	0.015688	-0.044944	100.000000
65.000000	0.015882	-0.015551	100.000000
66.000000	0.016120	-0.058620	100.000000
67.000000	0.016402	-0.038258	100.000000
68.000000	0.016711	-0.051926	100.000000
69.000000	0.017025	-0.029652	100.000000
70.000000	0.017336	-0.032962	100.000000
71.000000	0.017639	-0.057262	100.000000
72.000000	0.017933	-0.040231	100.000000
73.000000	0.018209	-0.046726	100.000000
74.000000	0.018461	-0.038372	100.000000
75.000000	0.018685	-0.048634	100.000000
76.000000	0.018871	-0.021225	100.000000
77.000000	0.019028	-0.048518	100.000000
78.000000	0.019166	-0.041689	100.000000
79.000000	0.019284	-0.053728	100.000000
80.000000	0.019389	-0.034752	100.000000
81.000000	0.019492	-0.050249	100.000000
82.000000	0.019588	-0.043152	100.000000
83.000000	0.019680	-0.044992	100.000000
84.000000	0.019776	-0.058835	100.000000
85.000000	0.019876	-0.050314	100.000000
86.000000	0.020000	-0.043412	100.000000
87.000000	0.020173	-0.043335	100.000000
88.000000	0.020390	-0.051963	100.000000
89.000000	0.020621	-0.062333	100.000000
90.000000	0.020857	-0.050179	100.000000
91.000000	0.021111	-0.050374	100.000000
92.000000	0.021397	-0.052087	100.000000
93.000000	0.021708	-0.042127	100.000000
94.000000	0.022003	-0.045244	100.000000
95.000000	0.022260	-0.031496	100.000000
96.000000	0.022481	-0.043513	100.000000
97.000000	0.022672	-0.045131	100.000000
98.000000	0.022838	-0.055525	100.000000
99.000000	0.022975	-0.021273	100.000000
100.000000	0.023083	-0.041859	100.000000
101.000000	0.023168	-0.031589	100.000000
102.000000	0.023234	-0.031689	100.000000
103.000000	0.023293	-0.058994	100.000000
104.000000	0.023354	-0.040038	100.000000
105.000000	0.023411	-0.045269	100.000000
106.000000	0.023451	-0.058891	100.000000
107.000000	0.023484	-0.055556	100.000000
108.000000	0.023528	-0.045356	100.000000
109.000000	0.023593	-0.045150	100.000000
110.000000	0.023678	-0.058910	100.000000
111.000000	0.023783	-0.079451	100.000000
112.000000	0.023932	-0.058994	100.000000
113.000000	0.024132	-0.076073	100.000000
114.000000	0.024377	-0.057296	100.000000
115.000000	0.024661	-0.079653	100.000000
116.000000	0.024983	-0.054070	100.000000
117.000000	0.025330	-0.043921	100.000000
118.000000	0.025676	-0.065964	100.000000
119.000000	0.026004	-0.049063	100.000000
120.000000	0.026316	-0.059109	100.000000
121.000000	0.026597	-0.071176	100.000000
122.000000	0.026830	-0.041906	100.000000
123.000000	0.027036	-0.057308	100.000000
124.000000	0.027239	-0.055566	100.000000
125.000000	0.027451	-0.069318	100.000000
126.000000	0.027678	-0.070950	100.000000
127.000000	0.027918	-0.067706	100.000000
128.000000	0.028170	-0.055708	100.000000
129.000000	0.028426	-0.074523	100.000000
130.000000	0.028680	-0.071101	100.000000
131.000000	0.028938	-0.064315	100.000000
132.000000	0.029208	-0.081479	100.000000
133.000000	0.029499	-0.074604	100.000000
134.000000	0.029819	-0.078018	100.000000
135.000000	0.030176	-0.067824	100.000000
136.000000	0.030566	-0.076348	100.000000
137.000000	0.030980	-0.071403	100.000000
138.000000	0.031407	-0.052475	100.000000
139.000000	0.031830	-0.061086	100.000000
140.000000	0.032239	-0.084917	100.000000
141.000000	0.032639	-0.056570	100.000000
142.000000	0.033032	-0.078220	100.000000
143.000000	0.033408	-0.061116	100.000000
144.000000	0.033761	-0.081547	100.000000
145.000000	0.034095	-0.074696	100.000000
146.000000	0.034418	-0.089984	100.000000
147.000000	0.034736	-0.074535	100.000000
148.000000	0.035058	-0.095245	100.000000
149.000000	0.035384	-0.086784	100.000000
150.000000	0.035701	-0.084869	100.000000
151.000000	0.036014	-0.078139	100.000000
152.000000	0.036353	-0.096933	100.000000
153.000000	0.036731	-0.075024	100.000000
154.000000	0.037125	-0.088471	100.000000
155.000000	0.037520	-0.086794	100.000000
156.000000	0.037923	-0.082045	100.000000
157.000000	0.038326	-0.076593	100.000000
158.000000	0.038713	-0.071556	100.000000
159.000000	0.039092	-0.088547	100.000000
160.000000	0.039465	-0.075104	100.000000
161.000000	0.039822	-0.073209	100.000000
162.000000	0.040156	-0.074938	100.000000
163.000000	0.040480	-0.081878	100.000000
164.000000	0.040806	-0.083289	100.000000
165.000000	0.041130	-0.088603	100.000000
166.000000	0.041444	-0.085227	100.000000
167.000000	0.041758	-0.105918	100.000000
168.000000	0.042080	-0.092136	100.000000
169.000000	0.042407	-0.090431	100.000000
170.000000	0.042747	-0.081900	100.000000
171.000000	0.043130	-0.082083	100.000000
172.000000	0.043567	-0.100920	100.000000
173.000000	0.044030	-0.088964	100.000000
174.000000	0.044488	-0.082131	100.000000
175.000000	0.044925	-0.084125	100.000000
176.000000	0.045332	-0.076936	100.000000
177.000000	0.045716	-0.083635	100.000000
178.000000	0.046078	-0.078581	100.000000
179.000000	0.046411	-0.071697	100.000000
180.000000	0.046718	-0.088850	100.000000
181.000000	0.046998	-0.076764	100.000000
182.000000	0.047260	-0.092429	100.000000
183.000000	0.047518	-0.088959	100.000000
184.000000	0.047786	-0.090496	100.000000
185.000000	0.048081	-0.091910	100.000000
186.000000	0.048419	-0.087129	100.000000
187.000000	0.048784	-0.087257	100.000000
188.000000	0.049156	-0.090742	100.000000
189.000000	0.049550	-0.097403	100.000000
190.000000	0.049981	-0.088933	100.000000
191.000000	0.050441	-0.092483	100.000000
192.000000	0.050910	-0.099517	100.000000
193.000000	0.051366	-0.092452	100.000000
194.000000	0.051805	-0.089484	100.000000
195.000000	0.052236	-0.089108	100.000000
196.000000	0.052662	-0.103173	100.000000
197.000000	0.053086	-0.097768	100.000000
198.000000	0.053522	-0.094227	100.000000
199.000000	0.053967	-0.106226	100.000000
200.000000	0.054416	-0.087637	100.000000
201.000000	0.054864	-0.096118	100.000000
202.000000	0.055302	-0.097900	100.000000
203.000000	0.055725	-0.096210	100.000000
204.000000	0.056127	-0.082421	100.000000
205.000000	0.056509	-0.089178	100.000000
206.000000	0.056878	-0.077159	100.000000
207.000000	0.057244	-0.090944	100.000000
208.000000	0.057612	-0.102872	100.000000
209.000000	0.058001	-0.092687	100.000000
210.000000	0.058425	-0.103233	100.000000
211.000000	0.058890	-0.111602	100.000000
212.000000	0.059399	-0.092736	100.000000
213.000000	0.059952	-0.091109	100.000000
214.000000	0.060543	-0.115273	100.000000
215.000000	0.061159	-0.093191	100.000000
216.000000	0.061779	-0.092933	100.000000
217.000000	0.062389	-0.094990	100.000000
218.000000	0.062989	-0.092947	100.000000
219.000000	0.063589	-0.082670	100.000000
220.000000	0.064180	-0.087820	100.000000
221.000000	0.064743	-0.094763	100.000000
222.000000	0.065277	-0.103287	100.000000
223.000000	0.065790	-0.072502	100.000000
224.000000	0.066289	-0.086045	100.000000
225.000000	0.066776	-0.086209	100.000000
226.000000	0.067257	-0.098142	100.000000
227.000000	0.067745	-0.082694	100.000000
228.000000	0.068257	-0.096554	100.000000
229.000000	0.068785	-0.094849	100.000000
230.000000	0.069314	-0.096614	100.000000
231.000000	0.069832	-0.086342	100.000000
232.000000	0.070336	-0.093224	100.000000
233.000000	0.070830	-0.091490	100.000000
234.000000	0.071314	-0.101979	100.000000
235.000000	0.071781	-0.105228	100.000000
236.000000	0.072224	-0.098428	100.000000
237.000000	0.072638	-0.089692	100.000000
238.000000	0.073032	-0.082979	100.000000
239.000000	0.073410	-0.101801	100.000000
240.000000	0.073763	-0.086365	100.000000
241.000000	0.074106	-0.084731	100.000000
242.000000	0.074451	-0.095027	100.000000
243.000000	0.074807	-0.089678	100.000000
244.000000	0.075189	-0.098440	100.000000
245.000000	0.075588	-0.100098	100.000000
246.000000	0.075987	-0.089904	100.000000
247.000000	0.076410	-0.093216	100.000000
248.000000	0.076881	-0.119087	100.000000
249.000000	0.077399	-0.096755	100.000000
250.000000	0.077952	-0.082801	100.000000
251.000000	0.078535	-0.105624	100.000000
252.000000	0.079143	-0.091749	100.000000
253.000000	0.079761	-0.103959	100.000000
254.000000	0.080371	-0.112692	100.000000
255.000000	0.080962	-0.088526	100.000000
256.000000	0.081530	-0.098817	100.000000
257.000000	0.082077	-0.080139	100.000000
258.000000	0.082598	-0.100530	100.000000
259.000000	0.083090	-0.085359	100.000000
260.000000	0.083552	-0.095430	100.000000
261.000000	0.083995	-0.086802	100.000000
262.000000	0.084432	-0.095332	100.000000
263.000000	0.084888	-0.079847	100.000000
264.000000	0.085379	-0.095250	100.000000
265.000000	0.085907	-0.095443	100.000000
266.000000	0.086466	-0.088745	100.000000
267.000000	0.087044	-0.093864	100.000000
268.000000	0.087634	-0.095846	100.000000
269.000000	0.088236	-0.098862	100.000000
270.000000	0.088849	-0.110999	100.000000
271.000000	0.089457	-0.083547	100.000000
272.000000	0.090049	-0.093776	100.000000
273.000000	0.090623	-0.085278	100.000000
274.000000	0.091180	-0.078574	100.000000
275.000000	0.091717	-0.086799	100.000000
276.000000	0.092242	-0.088125	100.000000
277.000000	0.092760	-0.083670	100.000000
278.000000	0.093269	-0.092262	100.000000
279.000000	0.093760	-0.076904	100.000000
280.000000	0.094235	-0.098924	100.000000
281.000000	0.094702	-0.081909	100.000000
282.000000	0.095177	-0.090300	100.000000
283.000000	0.095677	-0.085121	100.000000
284.000000	0.096223	-0.104139	100.000000
285.000000	0.096815	-0.070178	100.000000
286.000000	0.097434	-0.089001	100.000000
287.000000	0.098074	-0.080278	100.000000
288.000000	0.098733	-0.077036	100.000000
289.000000	0.099388	-0.066882	100.000000
290.000000	0.100014	-0.080375	100.000000
291.000000	0.100602	-0.089116	100.000000
292.000000	0.101163	-0.070107	100.000000
293.000000	0.101697	-0.077497	100.000000
294.000000	0.102191	-0.082119	100.000000
295.000000	0.102643	-0.092301	100.000000
296.000000	0.103055	-0.077000	100.000000
297.000000	0.103431	-0.071852	100.000000
298.000000	0.103778	-0.077172	100.000000
299.000000	0.104100	-0.059935	100.000000
300.000000	0.104399	-0.085598	100.000000
301.000000	0.104683	-0.071670	100.000000
302.000000	0.104957	-0.063361	100.000000
303.000000	0.105223	-0.065044	100.000000
304.000000	0.105489	-0.071856	100.000000
305.000000	0.105771	-0.068520	100.000000
306.000000	0.106072	-0.079014	100.000000
307.000000	0.106392	-0.078734	100.000000
308.000000	0.106734	-0.063328	100.000000
309.000000	0.107105	-0.083908	100.000000
310.000000	0.107514	-0.084144	100.000000
311.000000	0.107942	-0.082333	100.000000
312.000000	0.108370	-0.063547	100.000000
313.000000	0.108779	-0.056889	100.000000
314.000000	0.109148	-0.077480	100.000000
315.000000	0.109466	-0.068858	100.000000
316.000000	0.109751	-0.058599	100.000000
317.000000	0.110033	-0.063586	100.000000
318.000000	0.110308	-0.061804	100.000000
319.000000	0.110562	-0.079123	100.000000
320.000000	0.110803	-0.066914	100.000000
321.000000	0.111042	-0.070394	100.000000
322.000000	0.111285	-0.067063	100.000000
323.000000	0.111531	-0.063629	100.000000
324.000000	0.111789	-0.077184	100.000000
325.000000	0.112078	-0.082451	100.000000
326.000000	0.112408	-0.067093	100.000000
327.000000	0.112776	-0.089278	100.000000
328.000000	0.113181	-0.079324	100.000000
329.000000	0.113613	-0.096190	100.000000
330.000000	0.114058	-0.070210	100.000000
331.000000	0.114508	-0.072393	100.000000
332.000000	0.114958	-0.065574	100.000000
333.000000	0.115401	-0.089644	100.000000
334.000000	0.115838	-0.072394	100.000000
335.000000	0.116261	-0.077647	100.000000
336.000000	0.116651	-0.067530	100.000000
337.000000	0.117004	-0.056946	100.000000
338.000000	0.117339	-0.089477	100.000000
339.000000	0.117675	-0.082597	100.000000
340.000000	0.118002	-0.070807	100.000000
341.000000	0.118309	-0.082648	100.000000
342.000000	0.118604	-0.079371	100.000000
343.000000	0.118893	-0.070527	100.000000
344.000000	0.119187	-0.087804	100.000000
345.000000	0.119509	-0.070676	100.000000
346.000000	0.119860	-0.096383	100.000000
347.000000	0.120247	-0.081127	100.000000
348.000000	0.120670	-0.087960	100.000000
349.000000	0.121132	-0.084581	100.000000
350.000000	0.121628	-0.081058	100.000000
351.000000	0.122136	-0.098227	100.000000
352.000000	0.122641	-0.084678	100.000000
353.000000	0.123129	-0.067422	100.000000
354.000000	0.123574	-0.084667	100.000000
355.000000	0.123980	-0.067391	100.000000
356.000000	0.124369	-0.065883	100.000000
357.000000	0.124734	-0.081160	100.000000
358.000000	0.125063	-0.079411	100.000000
359.000000	0.125361	-0.084655	100.000000
360.000000	0.125634	-0.088117	100.000000
361.000000	0.125872	-0.067591	100.000000
362.000000	0.126072	-0.068888	100.000000
363.000000	0.126253	-0.076078	100.000000
364.000000	0.126414	-0.088156	100.000000
365.000000	0.126551	-0.086101	100.000000
366.000000	0.126670	-0.074254	100.000000
367.000000	0.126777	-0.082948	100.000000
368.000000	0.126890	-0.093359	100.000000
369.000000	0.127017	-0.074237	100.000000
370.000000	0.127165	-0.086331	100.000000
371.000000	0.127349	-0.079633	100.000000
372.000000	0.127561	-0.077842	100.000000
373.000000	0.127786	-0.091767	100.000000
374.000000	0.128019	-0.083097	100.000000
375.000000	0.128263	-0.086684	100.000000
376.000000	0.128506	-0.091650	100.000000
377.000000	0.128725	-0.095317	100.000000
378.000000	0.128908	-0.076187	100.000000
379.000000	0.129055	-0.074423	100.000000
380.000000	0.129172	-0.084633	100.000000
381.000000	0.129266	-0.074322	100.000000
382.000000	0.129337	-0.081278	100.000000
383.000000	0.129398	-0.091480	100.000000
384.000000	0.129474	-0.081295	100.000000
385.000000	0.129579	-0.081576	100.000000
386.000000	0.129729	-0.093583	100.000000
387.000000	0.129940	-0.084962	100.000000
388.000000	0.130220	-0.083362	100.000000
389.000000	0.130561	-0.078294	100.000000
390.000000	0.130964	-0.069851	100.000000
391.000000	0.131444	-0.068065	100.000000
392.000000	0.132002	-0.066762	100.000000
393.000000	0.132625	-0.064880	100.000000
394.000000	0.133304	-0.080526	100.000000
395.000000	0.134031	-0.068681	100.000000
396.000000	0.134804	-0.060041	100.000000
397.000000	0.135644	-0.049932	100.000000
398.000000	0.136557	-0.065179	100.000000
399.000000	0.137551	-0.070610	100.000000
400.000000	0.138634	-0.055326	100.000000
401.000000	0.139796	-0.065640	100.000000
402.000000	0.141038	-0.058981	100.000000
403.000000	0.142370	-0.074507	100.000000
404.000000	0.143806	-0.050629	100.000000
405.000000	0.145348	-0.061078	100.000000
406.000000	0.147005	-0.057729	100.000000
407.000000	0.148797	-0.071545	100.000000
408.000000	0.150726	-0.054540	100.000000
409.000000	0.152787	-0.040953	100.000000
410.000000	0.154975	-0.059937	100.000000
411.000000	0.157275	-0.056819	100.000000
412.000000	0.159656	-0.044955	100.000000
413.000000	0.162100	-0.048492	100.000000
414.000000	0.164596	-0.050038	100.000000
415.000000	0.167144	-0.048718	100.000000
416.000000	0.169743	-0.051885	100.000000
417.000000	0.172388	-0.050376	100.000000
418.000000	0.175079	-0.047336	100.000000
419.000000	0.177820	-0.048866	100.000000
420.000000	0.180609	-0.049153	100.000000
421.000000	0.183441	-0.055969	100.000000
422.000000	0.186326	-0.054343	100.000000
423.000000	0.189277	-0.062840	100.000000
424.000000	0.192299	-0.059690	100.000000
425.000000	0.195383	-0.070284	100.000000
426.000000	0.198528	-0.051531	100.000000
427.000000	0.201729	-0.034562	100.000000
428.000000	0.204975	-0.050161	100.000000
429.000000	0.208238	-0.046750	100.000000
430.000000	0.211503	-0.029945	100.000000
431.000000	0.214771	-0.058936	100.000000
432.000000	0.218045	-0.045554	100.000000
433.000000	0.221320	-0.055860	100.000000
434.000000	0.224595	-0.021514	100.000000
435.000000	0.227859	-0.040616	100.000000
436.000000	0.231095	-0.038839	100.000000
437.000000	0.234303	-0.057814	100.000000
438.000000	0.237495	-0.042228	100.000000
439.000000	0.240675	-0.042477	100.000000
440.000000	0.243843	-0.042577	100.000000
441.000000	0.247016	-0.047881	100.000000
442.000000	0.250198	-0.044515	100.000000
443.000000	0.253376	-0.036001	100.000000
444.000000	0.256541	-0.050014	100.000000
445.000000	0.259705	-0.048354	100.000000
446.000000	0.262872	-0.046675	100.000000
447.000000	0.266023	-0.052127	100.000000
448.000000	0.269145	-0.057282	100.000000
449.000000	0.272235	-0.060885	100.000000
450.000000	0.275288	-0.064269	100.000000
451.000000	0.278304	-0.047408	100.000000
452.000000	0.281276	-0.057698	100.000000
453.000000	0.284193	-0.049500	100.000000
454.000000	0.287055	-0.052785	100.000000
455.000000	0.289867	-0.058050	100.000000
456.000000	0.292635	-0.051346	100.000000
457.000000	0.295362	-0.041097	100.000000
458.000000	0.298042	-0.040969	100.000000
459.000000	0.300670	-0.058282	100.000000
460.000000	0.303245	-0.029249	100.000000
461.000000	0.305773	-0.050126	100.000000
462.000000	0.308276	-0.067167	100.000000
463.000000	0.310770	-0.053499	100.000000
464.000000	0.313269	-0.050346	100.000000
465.000000	0.315792	-0.062457	100.000000
466.000000	0.318355	-0.057312	100.000000
467.000000	0.320952	-0.059129	100.000000
468.000000	0.323559	-0.069604	100.000000
469.000000	0.326182	-0.083362	100.000000
470.000000	0.328824	-0.047814	100.000000
471.000000	0.331478	-0.059444	100.000000
472.000000	0.334149	-0.066700	100.000000
473.000000	0.336829	-0.058298	100.000000
474.000000	0.339501	-0.061895	100.000000
475.000000	0.342161	-0.068562	100.000000
476.000000	0.344817	-0.065122	100.000000
477.000000	0.347481	-0.081084	100.000000
478.000000	0.350165	-0.068830	100.000000
479.000000	0.352859	-0.070746	100.000000
480.000000	0.355544	-0.081057	100.000000
481.000000	0.358238	-0.074534	100.000000
482.000000	0.360967	-0.074651	100.000000
483.000000	0.363758	-0.076429	100.000000
484.000000	0.366626	-0.085178	100.000000
485.000000	0.369576	-0.088795	100.000000
486.000000	0.372613	-0.102672	100.000000
487.000000	0.375734	-0.096011	100.000000
488.000000	0.378930	-0.094394	100.000000
489.000000	0.382202	-0.091189	100.000000
490.000000	0.385553	-0.099944	100.000000
491.000000	0.388968	-0.091833	100.000000
492.000000	0.392431	-0.090117	100.000000
493.000000	0.395954	-0.090209	100.000000
494.000000	0.399556	-0.081854	100.000000
495.000000	0.403258	-0.089053	100.000000
496.000000	0.407083	-0.092345	100.000000
497.000000	0.411030	-0.087617	100.000000
498.000000	0.415098	-0.096398	100.000000
499.000000	0.419274	-0.100241	100.000000
500.000000	0.423555	-0.098374	100.000000
501.000000	0.427980	-0.093692	100.000000
502.000000	0.432581	-0.097347	100.000000
503.000000	0.437363	-0.113117	100.000000
504.000000	0.442339	-0.099588	100.000000
505.000000	0.447520	-0.094654	100.000000
506.000000	0.452908	-0.127644	100.000000
507.000000	0.458494	-0.124326	100.000000
508.000000	0.464261	-0.114562	100.000000
509.000000	0.470195	-0.121616	100.000000
510.000000	0.476292	-0.123588	100.000000
511.000000	0.482546	-0.110373	100.000000
512.000000	0.488931	-0.107177	100.000000
513.000000	0.495430	-0.105534	100.000000
514.000000	0.502046	-0.148758	100.000000
515.000000	0.508786	-0.140669	100.000000
516.000000	0.515669	-0.135539	100.000000
517.000000	0.522726	-0.138204	100.000000
518.000000	0.529964	-0.139672	100.000000
519.000000	0.537371	-0.152198	100.000000
520.000000	0.544977	-0.157523	100.000000
521.000000	0.552824	-0.168318	100.000000
522.000000	0.560941	-0.166770	100.000000
523.000000	0.569357	-0.181056	100.000000
524.000000	0.578105	-0.179921	100.000000
525.000000	0.587214	-0.197586	100.000000
526.000000	0.596716	-0.189720	100.000000
527.000000	0.606656	-0.209312	100.000000
528.000000	0.617083	-0.203242	100.000000
529.000000	0.628064	-0.192168	100.000000
530.000000	0.639661	-0.209885	100.000000
531.000000	0.651898	-0.212378	100.000000
532.000000	0.664751	-0.207700	100.000000
533.000000	0.678157	-0.186041	100.000000
534.000000	0.692039	-0.212017	100.000000
535.000000	0.706336	-0.234788	100.000000
536.000000	0.720983	-0.221480	100.000000
537.000000	0.735926	-0.209798	100.000000
538.000000	0.751141	-0.208518	100.000000
539.000000	0.766604	-0.217620	100.000000
540.000000	0.782283	-0.244110	100.000000
541.000000	0.798166	-0.247653	100.000000
542.000000	0.814253	-0.250024	100.000000
543.000000	0.830542	-0.236847	100.000000
544.000000	0.847025	-0.268254	100.000000
545.000000	0.863692	-0.263485	100.000000
546.000000	0.880540	-0.279317	100.000000
547.000000	0.897552	-0.295423	100.000000
548.000000	0.914708	-0.290676	100.000000
549.000000	0.932008	-0.263934	100.000000
550.000000	0.949450	-0.290192	100.000000
551.000000	0.967027	-0.294266	100.000000
552.000000	0.984746	-0.308820	100.000000
553.000000	1.002622	-0.305675	100.000000
554.000000	1.020649	-0.316622	100.000000
555.000000	1.038820	-0.317189	100.000000
556.000000	1.057129	-0.317979	100.000000
557.000000	1.075557	-0.316670	100.000000
558.000000	1.094085	-0.320597	100.000000
559.000000	1.112721	-0.357129	100.000000
560.000000	1.131458	-0.328758	100.000000
561.000000	1.150278	-0.342903	100.000000
562.000000	1.169183	-0.322676	100.000000
563.000000	1.188190	-0.336932	100.000000
564.000000	1.207300	-0.317025	100.000000
565.000000	1.226494	-0.344980	100.000000
566.000000	1.245754	-0.345318	100.000000
567.000000	1.265080	-0.337236	100.000000
568.000000	1.284487	-0.329350	100.000000
569.000000	1.303950	-0.331723	100.000000
570.000000	1.323445	-0.347515	100.000000
571.000000	1.342965	-0.355001	100.000000
572.000000	1.362515	-0.350076	100.000000
573.000000	1.382106	-0.345894	100.000000
574.000000	1.401719	-0.365193	100.000000
575.000000	1.421320	-0.345214	100.000000
576.000000	1.440882	-0.355889	100.000000
577.000000	1.460379	-0.347876	100.000000
578.000000	1.479788	-0.363566	100.000000
579.000000	1.499092	-0.357417	100.000000
580.000000	1.518277	-0.362936	100.000000
581.000000	1.537339	-0.344576	100.000000
582.000000	1.556264	-0.365497	100.000000
583.000000	1.575039	-0.376125	100.000000
584.000000	1.593667	-0.364604	100.000000
585.000000	1.612153	-0.359811	100.000000
586.000000	1.630495	-0.363758	100.000000
587.000000	1.648683	-0.364021	100.000000
588.000000	1.666706	-0.352553	100.000000
589.000000	1.684572	-0.371696	100.000000
590.000000	1.702298	-0.382508	100.000000
591.000000	1.719899	-0.386413	100.000000
592.000000	1.737367	-0.378425	100.000000
593.000000	1.754690	-0.383839	100.000000
594.000000	1.771877	-0.388084	100.000000
595.000000	1.788928	-0.389934	100.000000
596.000000	1.805826	-0.394039	100.000000
597.000000	1.822560	-0.387379	100.000000
598.000000	1.839137	-0.379258	100.000000
599.000000	1.855551	-0.386468	100.000000
600.000000	1.871796	-0.395359	100.000000
601.000000	1.887868	-0.385439	100.000000
602.000000	1.903755	-0.375279	100.000000
603.000000	1.919454	-0.372486	100.000000
604.000000	1.934972	-0.367512	100.000000
605.000000	1.950319	-0.388358	100.000000
606.000000	1.965507	-0.375062	100.000000
607.000000	1.980545	-0.389193	100.000000
608.000000	1.995444	-0.365376	100.000000
609.000000	2.010207	-0.384597	100.000000
610.000000	2.024833	-0.381664	100.000000
611.000000	2.039318	-0.378453	100.000000
612.000000	2.053658	-0.383908	100.000000
613.000000	2.067858	-0.380871	100.000000
614.000000	2.081929	-0.372649	100.000000
615.000000	2.095886	-0.379972	100.000000
616.000000	2.109735	-0.388901	100.000000
617.000000	2.123460	-0.375429	100.000000
618.000000	2.137052	-0.399591	100.000000
619.000000	2.150525	-0.386489	100.000000
620.000000	2.163880	-0.382974	100.000000
621.000000	2.177109	-0.390264	100.000000
622.000000	2.190221	-0.383633	100.000000
623.000000	2.203237	-0.384224	100.000000
624.000000	2.216187	-0.398389	100.000000
625.000000	2.229102	-0.412365	100.000000
626.000000	2.242008	-0.400777	100.000000
627.000000	2.254915	-0.385572	100.000000
628.000000	2.267822	-0.389496	100.000000
629.000000	2.280759	-0.387901	100.000000
630.000000	2.293780	-0.397022	100.000000
631.000000	2.306908	-0.373422	100.000000
632.000000	2.320153	-0.389675	100.000000
633.000000	2.333542	-0.382966	100.000000
634.000000	2.347103	-0.397452	100.000000
635.000000	2.360854	-0.379169	100.000000
636.000000	2.374822	-0.362582	100.000000
637.000000	2.389023	-0.356006	100.000000
638.000000	2.403460	-0.351503	100.000000
639.000000	2.418151	-0.375898	100.000000
640.000000	2.433108	-0.352567	100.000000
641.000000	2.448319	-0.349556	100.000000
642.000000	2.463791	-0.348325	100.000000
643.000000	2.479543	-0.325183	100.000000
644.000000	2.495591	-0.327089	100.000000
645.000000	2.511970	-0.320768	100.000000
646.000000	2.528707	-0.321705	100.000000
647.000000	2.545805	-0.313597	100.000000
648.000000	2.563258	-0.298885	100.000000
649.000000	2.581064	-0.302755	100.000000
650.000000	2.599222	-0.312007	100.000000
651.000000	2.617722	-0.295585	100.000000
652.000000	2.636542	-0.290942	100.000000
653.000000	2.655667	-0.269375	100.000000
654.000000	2.675074	-0.275027	100.000000
655.000000	2.694741	-0.275331	100.000000
656.000000	2.714660	-0.257057	100.000000
657.000000	2.734819	-0.271334	100.000000
658.000000	2.755205	-0.268528	100.000000
659.000000	2.775811	-0.265500	100.000000
660.000000	2.796635	-0.264245	100.000000
661.000000	2.817662	-0.257889	100.000000
662.000000	2.838875	-0.273954	100.000000
663.000000	2.860278	-0.238284	100.000000
664.000000	2.881883	-0.262871	100.000000
665.000000	2.903677	-0.253219	100.000000
666.000000	2.925659	-0.251946	100.000000
667.000000	2.947843	-0.254288	100.000000
668.000000	2.970234	-0.251715	100.000000
669.000000	2.992841	-0.243391	100.000000
670.000000	3.015669	-0.238824	100.000000
671.000000	3.038682	-0.258402	100.000000
672.000000	3.061846	-0.240008	100.000000
673.000000	3.085142	-0.250626	100.000000
674.000000	3.108560	-0.244340	100.000000
675.000000	3.132096	-0.249962	100.000000
676.000000	3.155733	-0.242011	100.000000
677.000000	3.179451	-0.252796	100.000000
678.000000	3.203243	-0.248193	100.000000
679.000000	3.227113	-0.247100	100.000000
680.000000	3.251062	-0.237334	100.000000
681.000000	3.275075	-0.232556	100.000000
682.000000	3.299148	-0.239991	100.000000
683.000000	3.323296	-0.226896	100.000000
684.000000	3.347536	-0.240938	100.000000
685.000000	3.371895	-0.250392	100.000000
686.000000	3.396393	-0.223385	100.000000
687.000000	3.421039	-0.229153	100.000000
688.000000	3.445838	-0.221136	100.000000
689.000000	3.470795	-0.228567	100.000000
690.000000	3.495916	-0.236092	100.000000
691.000000	3.521204	-0.215914	100.000000
692.000000	3.546668	-0.228681	100.000000
693.000000	3.572295	-0.243061	100.000000
694.000000	3.598068	-0.209342	100.000000
695.000000	3.623987	-0.211836	100.000000
696.000000	3.650066	-0.217450	100.000000
697.000000	3.676310	-0.212961	100.000000
698.000000	3.702701	-0.210314	100.000000
699.000000	3.729225	-0.198665	100.000000
700.000000	3.755903	-0.197927	100.000000
701.000000	3.782742	-0.196696	100.000000
702.000000	3.809748	-0.211092	100.000000
703.000000	3.836942	-0.179203	100.000000
704.000000	3.864344	-0.185173	100.000000
705.000000	3.891957	-0.179145	100.000000
706.000000	3.919796	-0.177998	100.000000
707.000000	3.947887	-0.175253	100.000000
708.000000	3.976251	-0.165785	100.000000
709.000000	4.004891	-0.170233	100.000000
710.000000	4.033805	-0.133353	100.000000
711.000000	4.063003	-0.135912	100.000000
712.000000	4.092486	-0.143464	100.000000
713.000000	4.122254	-0.130740	100.000000
714.000000	4.152297	-0.102505	100.000000
715.000000	4.182597	-0.091174	100.000000
716.000000	4.213148	-0.107517	100.000000
717.000000	4.243915	-0.096452	100.000000
718.000000	4.274848	-0.068180	100.000000
719.000000	4.305939	-0.070251	100.000000
720.000000	4.337191	-0.054367	100.000000
721.000000	4.368615	-0.050029	100.000000
722.000000	4.400243	-0.039206	100.000000
723.000000	4.432103	-0.024866	100.000000
724.000000	4.464211	-0.008514	100.000000
725.000000	4.496587	-0.002737	100.000000
726.000000	4.529241	0.004863	100.000000
727.000000	4.562161	0.014148	100.000000
728.000000	4.595349	0.030467	100.000000
729.000000	4.628809	0.024557	100.000000
730.000000	4.662540	0.031920	100.000000
731.000000	4.696541	0.027634	100.000000
732.000000	4.730815	0.058994	100.000000
733.000000	4.765350	0.087034	100.000000
734.000000	4.800134	0.062344	100.000000
735.000000	4.835154	0.095438	100.000000
736.000000	4.870381	0.114844	100.000000
737.000000	4.905779	0.112059	100.000000
738.000000	4.941328	0.134969	100.000000
739.000000	4.977033	0.133713	100.000000
740.000000	5.012887	0.141544	100.000000
741.000000	5.048873	0.157647	100.000000
742.000000	5.084994	0.180683	100.000000
743.000000	5.121249	0.198418	100.000000
744.000000	5.157605	0.200840	100.000000
745.000000	5.194027	0.225525	100.000000
746.000000	5.230517	0.217533	100.000000
747.000000	5.267078	0.261009	100.000000
748.000000	5.303677	0.249671	100.000000
749.000000	5.340287	0.272672	100.000000
750.000000	5.376912	0.294004	100.000000
751.000000	5.413560	0.286149	100.000000
752.000000	5.450243	0.291916	100.000000
753.000000	5.486969	0.314548	100.000000
754.000000	5.523739	0.340817	100.000000
755.000000	5.560577	0.343082	100.000000
756.000000	5.597528	0.348767	100.000000
757.000000	5.634623	0.371730	100.000000
758.000000	5.671862	0.406076	100.000000
759.000000	5.709234	0.406993	100.000000
760.000000	5.746733	0.427933	100.000000
761.000000	5.784355	0.445620	100.000000
762.000000	5.822087	0.459851	100.000000
763.000000	5.859905	0.488303	100.000000
764.000000	5.897775	0.498913	100.000000
765.000000	5.935646	0.515304	100.000000
766.000000	5.973469	0.533108	100.000000
767.000000	6.011216	0.530822	100.000000
768.000000	6.048870	0.564098	100.000000
769.000000	6.086420	0.569861	100.000000
770.000000	6.123824	0.581389	100.000000
771.000000	6.161021	0.592243	100.000000
772.000000	6.197972	0.619229	100.000000
773.000000	6.234643	0.609865	100.000000
774.000000	6.271002	0.634669	100.000000
775.000000	6.307046	0.626789	100.000000
776.000000	6.342797	0.653066	100.000000
777.000000	6.378300	0.672678	100.000000
778.000000	6.413599	0.668352	100.000000
779.000000	6.448722	0.675632	100.000000
780.000000	6.483688	0.686796	100.000000
781.000000	6.518520	0.716582	100.000000
782.000000	6.553257	0.726020	100.000000
783.000000	6.587905	0.746939	100.000000
784.000000	6.622481	0.747825	100.000000
785.000000	6.657024	0.756977	100.000000
786.000000	6.691538	0.768304	100.000000
787.000000	6.726007	0.777098	100.000000
788.000000	6.760418	0.820987	100.000000
789.000000	6.794765	0.802651	100.000000
790.000000	6.829054	0.819009	100.000000
791.000000	6.863285	0.840433	100.000000
792.000000	6.897456	0.853125	100.000000
793.000000	6.931552	0.874358	100.000000
794.000000	6.965551	0.876895	100.000000
795.000000	6.999430	0.898155	100.000000
796.000000	7.033186	0.888503	100.000000
797.000000	7.066818	0.925230	100.000000
798.000000	7.100313	0.919092	100.000000
799.000000	7.133664	0.942384	100.000000
800.000000	7.166885	0.962033	100.000000
801.000000	7.199989	0.964490	100.000000
802.000000	7.232975	0.965284	100.000000
803.000000	7.265823	0.993437	100.000000
804.000000	7.298513	1.016685	100.000000
805.000000	7.331035	1.027654	100.000000
806.000000	7.363380	1.025232	100.000000
807.000000	7.395537	1.032758	100.000000
808.000000	7.427497	1.061413	100.000000
809.000000	7.459246	1.060285	100.000000
810.000000	7.490764	1.069603	100.000000
811.000000	7.522048	1.070889	100.000000
812.000000	7.553101	1.090343	100.000000
813.000000	7.583916	1.101775	100.000000
814.000000	7.614480	1.135062	100.000000
815.000000	7.644789	1.099891	100.000000
816.000000	7.674839	1.126536	100.000000
817.000000	7.704626	1.137751	100.000000
818.000000	7.734158	1.143972	100.000000
819.000000	7.763451	1.161682	100.000000
820.000000	7.792519	1.173080	100.000000
821.000000	7.821382	1.163625	100.000000
822.000000	7.850062	1.186790	100.000000
823.000000	7.878589	1.210010	100.000000
824.000000	7.906994	1.197053	100.000000
825.000000	7.935269	1.201636	100.000000
826.000000	7.963395	1.210814	100.000000
827.000000	7.991362	1.225543	100.000000
828.000000	8.019168	1.233484	100.000000
829.000000	8.046831	1.241091	100.000000
830.000000	8.074360	1.257642	100.000000
831.000000	8.101758	1.253105	100.000000
832.000000	8.129017	1.254106	100.000000
833.000000	8.156114	1.273811	100.000000
834.000000	8.183049	1.292114	100.000000
835.000000	8.209842	1.311733	100.000000
836.000000	8.236526	1.302512	100.000000
837.000000	8.263120	1.313590	100.000000
838.000000	8.289633	1.316192	100.000000
839.000000	8.316075	1.325746	100.000000
840.000000	8.342469	1.355515	100.000000
841.000000	8.368843	1.355067	100.000000
842.000000	8.395212	1.357619	100.000000
843.000000	8.421588	1.375661	100.000000
844.000000	8.447978	1.388704	100.000000
845.000000	8.474392	1.389743	100.000000
846.000000	8.500837	1.421323	100.000000
847.000000	8.527299	1.396597	100.000000
848.000000	8.553762	1.416531	100.000000
849.000000	8.580225	1.407449	100.000000
850.000000	8.606679	1.442630	100.000000
851.000000	8.633102	1.438448	100.000000
852.000000	8.659471	1.456482	100.000000
853.000000	8.685758	1.443777	100.000000
854.000000	8.711953	1.472276	100.000000
855.000000	8.738066	1.464684	100.000000
856.000000	8.764094	1.494713	100.000000
857.000000	8.790030	1.492449	100.000000
858.000000	8.815894	1.500571	100.000000
859.000000	8.841709	1.508169	100.000000
860.000000	8.867455	1.523125	100.000000
861.000000	8.893117	1.508668	100.000000
862.000000	8.918694	1.527042	100.000000
863.000000	8.944198	1.519354	100.000000
864.000000	8.969642	1.537631	100.000000
865.000000	8.995032	1.526689	100.000000
866.000000	9.020365	1.534611	100.000000
867.000000	9.045633	1.545865	100.000000
868.000000	9.070831	1.543603	100.000000
869.000000	9.095954	1.568806	100.000000
870.000000	9.120985	1.564700	100.000000
871.000000	9.145913	1.577566	100.000000
872.000000	9.170731	1.572023	100.000000
873.000000	9.195414	1.578248	100.000000
874.000000	9.219951	1.574190	100.000000
875.000000	9.244347	1.580504	100.000000
876.000000	9.268594	1.576620	100.000000
877.000000	9.292673	1.601563	100.000000
878.000000	9.316567	1.585356	100.000000
879.000000	9.340286	1.605200	100.000000
880.000000	9.363845	1.601406	100.000000
881.000000	9.387232	1.614618	100.000000
882.000000	9.410439	1.622454	100.000000
883.000000	9.433490	1.635604	100.000000
884.000000	9.456405	1.638350	100.000000
885.000000	9.479209	1.639740	100.000000
886.000000	9.501926	1.639020	100.000000
887.000000	9.524561	1.652240	100.000000
888.000000	9.547127	1.652895	100.000000
889.000000	9.569637	1.640661	100.000000
890.000000	9.592100	1.652022	100.000000
891.000000	9.614533	1.665094	100.000000
892.000000	9.636929	1.683221	100.000000
893.000000	9.659282	1.682663	100.000000
894.000000	9.681601	1.675133	100.000000
895.000000	9.703883	1.698509	100.000000
896.000000	9.726113	1.694341	100.000000
897.000000	9.748286	1.697442	100.000000
898.000000	9.770399	1.705145	100.000000
899.000000	9.792446	1.721708	100.000000
900.000000	9.814419	1.707496	100.000000
901.000000	9.836319	1.727432	100.000000
902.000000	9.858153	1.724956	100.000000
903.000000	9.879919	1.746843	100.000000
904.000000	9.901608	1.737780	100.000000
905.000000	9.923219	1.735215	100.000000
906.000000	9.944758	1.758962	100.000000
907.000000	9.966218	1.746211	100.000000
908.000000	9.987589	1.764538	100.000000
909.000000	10.008864	1.752181	100.000000
910.000000	10.030044	1.763555	100.000000
911.000000	10.051123	1.764671	100.000000
912.000000	10.072087	1.767739	100.000000
913.000000	10.092917	1.760078	100.000000
914.000000	10.113616	1.787161	100.000000
915.000000	10.134199	1.783092	100.000000
916.000000	10.154670	1.767070	100.000000
917.000000	10.175028	1.780307	100.000000
918.000000	10.195278	1.764478	100.000000
919.000000	10.215431	1.789536	100.000000
920.000000	10.235478	1.772034	100.000000
921.000000	10.255407	1.781601	100.000000
922.000000	10.275191	1.784808	100.000000
923.000000	10.294809	1.787599	100.000000
924.000000	10.314246	1.806016	100.000000
925.000000	10.333483	1.805332	100.000000
926.000000	10.352515	1.793192	100.000000
927.000000	10.371356	1.806255	100.000000
928.000000	10.390009	1.811226	100.000000
929.000000	10.408455	1.817288	100.000000
930.000000	10.426680	1.803404	100.000000
931.000000	10.444694	1.802798	100.000000
932.000000	10.462507	1.821271	100.000000
933.000000	10.480090	1.812123	100.000000
934.000000	10.497436	1.818758	100.000000
935.000000	10.514582	1.832158	100.000000
936.000000	10.531544	1.826485	100.000000
937.000000	10.548318	1.825996	100.000000
938.000000	10.564924	1.830786	100.000000
939.000000	10.581370	1.842140	100.000000
940.000000	10.597643	1.824748	100.000000
941.000000	10.613748	1.824218	100.000000
942.000000	10.629711	1.836077	100.000000
943.000000	10.645536	1.837371	100.000000
944.000000	10.661209	1.833614	100.000000
945.000000	10.676727	1.846900	100.000000
946.000000	10.692098	1.836041	100.000000
947.000000	10.707330	1.832156	100.000000
948.000000	10.722427	1.857504	100.000000
949.000000	10.737392	1.832961	100.000000
950.000000	10.752239	1.875311	100.000000
951.000000	10.766954	1.868083	100.000000
952.000000	10.781526	1.881306	100.000000
953.000000	10.795962	1.891333	100.000000
954.000000	10.810262	1.882472	100.000000
955.000000	10.824435	1.887266	100.000000
956.000000	10.838502	1.885507	100.000000
957.000000	10.852468	1.891862	100.000000
958.000000	10.866328	1.901997	100.000000
959.000000	10.880081	1.889372	100.000000
960.000000	10.893714	1.892611	100.000000
961.000000	10.907220	1.894019	100.000000
962.000000	10.920611	1.917761	100.000000
963.000000	10.933893	1.908931	100.000000
964.000000	10.947075	1.905193	100.000000
965.000000	10.960143	1.899661	100.000000
966.000000	10.973073	1.909550	100.000000
967.000000	10.985853	1.917885	100.000000
968.000000	10.998465	1.902244	100.000000
969.000000	11.010889	1.917254	100.000000
970.000000	11.023134	1.919105	100.000000
971.000000	11.035220	1.909838	100.000000
972.000000	11.047135	1.919993	100.000000
973.000000	11.058866	1.916536	100.000000
974.000000	11.070414	1.919578	100.000000
975.000000	11.081781	1.936468	100.000000
976.000000	11.092966	1.925939	100.000000
977.000000	11.103948	1.930840	100.000000
978.000000	11.114712	1.927530	100.000000
979.000000	11.125277	1.933805	100.000000
980.000000	11.135659	1.935347	100.000000
981.000000	11.145851	1.950647	100.000000
982.000000	11.155858	1.931702	100.000000
983.000000	11.165687	1.946798	100.000000
984.000000	11.175336	1.936414	100.000000
985.000000	11.184805	1.927918	100.000000
986.000000	11.194105	1.948114	100.000000
987.000000	11.203242	1.949655	100.000000
988.000000	11.212216	1.941159	100.000000
989.000000	11.221042	1.920259	100.000000
990.000000	11.229747	1.932395	100.000000
991.000000	11.238358	1.954008	100.000000
992.000000	11.246881	1.933364	100.000000
993.000000	11.255327	1.935098	100.000000
994.000000	11.263698	1.960367	100.000000
995.000000	11.271981	1.946787	100.000000
996.000000	11.280171	1.948234	100.000000
997.000000	11.288249	1.951623	100.000000
998.000000	11.296207	1.959804	100.000000
999.000000	11.304045	1.956717	100.000000
1000.000000	11.311756	1.961505	100.000000
1001.000000	11.319320	1.956025	100.000000
1002.000000	11.326731	1.971587	100.000000
1003.000000	11.333994	1.957745	100.000000
1004.000000	11.341118	1.958035	100.000000
1005.000000	11.348104	1.966456	100.000000
1006.000000	11.354949	1.956110	100.000000
1007.000000	11.361653	1.964540	100.000000
1008.000000	11.368222	1.969791	100.000000
1009.000000	11.374675	1.961030	100.000000
1010.000000	11.381014	1.955681	100.000000
1011.000000	11.387238	1.960737	100.000000
1012.000000	11.393362	1.962605	100.000000
1013.000000	11.399400	1.965712	100.000000
1014.000000	11.405352	1.980914	100.000000
1015.000000	11.411224	1.964122	100.000000
1016.000000	11.417034	1.965467	100.000000
1017.000000	11.422805	1.967189	100.000000
1018.000000	11.428533	1.963599	100.000000
1019.000000	11.434207	1.980656	100.000000
1020.000000	11.439817	1.960476	100.000000
1021.000000	11.445349	1.989236	100.000000
1022.000000	11.450797	1.960199	100.000000
1023.000000	11.456158	1.975511	100.000000
1024.000000	11.461422	1.984072	100.000000
1025.000000	11.466574	1.968655	100.000000
1026.000000	11.471615	1.977399	100.000000
1027.000000	11.476554	1.986102	100.000000
1028.000000	11.481395	1.963526	100.000000
1029.000000	11.486134	1.984266	100.000000
1030.000000	11.490769	1.977426	100.000000
1031.000000	11.495307	1.965444	100.000000
1032.000000	11.499752	1.960221	100.000000
1033.000000	11.504104	1.960161	100.000000
1034.000000	11.508358	1.967110	100.000000
1035.000000	11.512499	1.963748	100.000000
1036.000000	11.516527	1.980853	100.000000
1037.000000	11.520436	1.967335	100.000000
1038.000000	11.524201	1.986065	100.000000
1039.000000	11.527811	1.965670	100.000000
1040.000000	11.531264	1.979203	100.000000
1041.000000	11.534542	1.962305	100.000000
1042.000000	11.537623	1.987868	100.000000
1043.000000	11.540490	1.983040	100.000000
1044.000000	11.543115	1.957472	100.000000
1045.000000	11.545509	1.962777	100.000000
1046.000000	11.547703	1.966453	100.000000
1047.000000	11.549698	1.954297	100.000000
1048.000000	11.551482	1.961449	100.000000
1049.000000	11.553052	1.956386	100.000000
1050.000000	11.554407	1.958218	100.000000
1051.000000	11.555550	1.955057	100.000000
1052.000000	11.556497	1.958549	100.000000
1053.000000	11.557264	1.931008	100.000000
1054.000000	11.557849	1.939826	100.000000
1055.000000	11.558241	1.929641	100.000000
1056.000000	11.558442	1.943312	100.000000
1057.000000	11.558466	1.931531	100.000000
1058.000000	11.558322	1.931626	100.000000
1059.000000	11.558017	1.946870	100.000000
1060.000000	11.557553	1.924826	100.000000
1061.000000	11.556938	1.935013	100.000000
1062.000000	11.556190	1.933450	100.000000
1063.000000	11.555324	1.950431	100.000000
1064.000000	11.554362	1.931798	100.000000
1065.000000	11.553334	1.936994	100.000000
1066.000000	11.552274	1.930109	100.000000
1067.000000	11.551202	1.918197	100.000000
1068.000000	11.550134	1.945479	100.000000
1069.000000	11.549090	1.938673	100.000000
1070.000000	11.548081	1.921558	100.000000
1071.000000	11.547125	1.942169	100.000000
1072.000000	11.546246	1.923540	100.000000
1073.000000	11.545464	1.902813	100.000000
1074.000000	11.544798	1.914875	100.000000
1075.000000	11.544262	1.923390	100.000000
1076.000000	11.543863	1.930312	100.000000
1077.000000	11.543606	1.919959	100.000000
1078.000000	11.543498	1.930162	100.000000
1079.000000	11.543525	1.921202	100.000000
1080.000000	11.543682	1.921096	100.000000
1081.000000	11.543973	1.941862	100.000000
1082.000000	11.544389	1.937847	100.000000
1083.000000	11.544922	1.927861	100.000000
1084.000000	11.545582	1.922606	100.000000
1085.000000	11.546370	1.936278	100.000000
1086.000000	11.547290	1.932976	100.000000
1087.000000	11.548361	1.915846	100.000000
1088.000000	11.549589	1.936174	100.000000
1089.000000	11.550965	1.927458	100.000000
1090.000000	11.552486	1.932411	100.000000
1091.000000	11.554160	1.920525	100.000000
1092.000000	11.555985	1.925444	100.000000
1093.000000	11.557948	1.922092	100.000000
1094.000000	11.560032	1.916760	100.000000
1095.000000	11.562214	1.925327	100.000000
1096.000000	11.564490	1.925236	100.000000
1097.000000	11.566872	1.914724	100.000000
1098.000000	11.569357	1.921580	100.000000
1099.000000	11.571937	1.921381	100.000000
1100.000000	11.574597	1.909245	100.000000
1101.000000	11.577304	1.924556	100.000000
1102.000000	11.580026	1.921197	100.000000
1103.000000	11.582732	1.919334	100.000000
1104.000000	11.585400	1.915968	100.000000
1105.000000	11.588017	1.936169	100.000000
1106.000000	11.590576	1.919110	100.000000
1107.000000	11.593075	1.927475	100.000000
1108.000000	11.595512	1.920723	100.000000
1109.000000	11.597878	1.929222	100.000000
1110.000000	11.600160	1.917006	100.000000
1111.000000	11.602343	1.929068	100.000000
1112.000000	11.604416	1.923772	100.000000
1113.000000	11.606383	1.929079	100.000000
1114.000000	11.608256	1.906799	100.000000
1115.000000	11.610045	1.934150	100.000000
1116.000000	11.611762	1.918640	100.000000
1117.000000	11.613423	1.911703	100.000000
1118.000000	11.615031	1.899653	100.000000
1119.000000	11.616580	1.899635	100.000000
1120.000000	11.618060	1.908192	100.000000
1121.000000	11.619457	1.899442	100.000000
1122.000000	11.620759	1.904595	100.000000
1123.000000	11.621950	1.899430	100.000000
1124.000000	11.623021	1.899235	100.000000
1125.000000	11.623964	1.908025	100.000000
1126.000000	11.624766	1.888835	100.000000
1127.000000	11.625412	1.895788	100.000000
1128.000000	11.625895	1.887432	100.000000
1129.000000	11.626214	1.871992	100.000000
1130.000000	11.626366	1.894254	100.000000
1131.000000	11.626345	1.875612	100.000000
1132.000000	11.626140	1.885875	100.000000
1133.000000	11.625717	1.875620	100.000000
1134.000000	11.625062	1.872680	100.000000
1135.000000	11.624200	1.848577	100.000000
1136.000000	11.623156	1.850355	100.000000
1137.000000	11.621928	1.833532	100.000000
1138.000000	11.620520	1.837077	100.000000
1139.000000	11.618937	1.837128	100.000000
1140.000000	11.617184	1.830318	100.000000
1141.000000	11.615268	1.815048	100.000000
1142.000000	11.613181	1.804819	100.000000
1143.000000	11.610922	1.811927	100.000000
1144.000000	11.608488	1.815255	100.000000
1145.000000	11.605877	1.772712	100.000000
1146.000000	11.603092	1.791550	100.000000
1147.000000	11.600146	1.786518	100.000000
1148.000000	11.597044	1.790260	100.000000
1149.000000	11.593783	1.788356	100.000000
1150.000000	11.590357	1.785155	100.000000
1151.000000	11.586762	1.771513	100.000000
1152.000000	11.583001	1.764879	100.000000
1153.000000	11.579090	1.752906	100.000000
1154.000000	11.575050	1.737673	100.000000
1155.000000	11.570901	1.756883	100.000000
1156.000000	11.566662	1.739703	100.000000
1157.000000	11.562340	1.739882	100.000000
1158.000000	11.557924	1.744952	100.000000
1159.000000	11.553402	1.734972	100.000000
1160.000000	11.548789	1.731690	100.000000
1161.000000	11.544117	1.724884	100.000000
1162.000000	11.539400	1.706135	100.000000
1163.000000	11.534646	1.693990	100.000000
1164.000000	11.529869	1.697848	100.000000
1165.000000	11.525080	1.699638	100.000000
1166.000000	11.520273	1.697981	100.000000
1167.000000	11.515439	1.694752	100.000000
1168.000000	11.510575	1.682845	100.000000
1169.000000	11.505696	1.665912	100.000000
1170.000000	11.500812	1.675968	100.000000
1171.000000	11.495908	1.672959	100.000000
1172.000000	11.490977	1.662686	100.000000
1173.000000	11.486037	1.644083	100.000000
1174.000000	11.481082	1.647450	100.000000
1175.000000	11.476087	1.639106	100.000000
1176.000000	11.471040	1.652612	100.000000
1177.000000	11.465935	1.637432	100.000000
1178.000000	11.460771	1.656349	100.000000
1179.000000	11.455559	1.630937	100.000000
1180.000000	11.450303	1.629555	100.000000
1181.000000	11.444997	1.625925	100.000000
1182.000000	11.439647	1.631685	100.000000
1183.000000	11.434272	1.617681	100.000000
1184.000000	11.428868	1.615982	100.000000
1185.000000	11.423441	1.590279	100.000000
1186.000000	11.418025	1.602720	100.000000
1187.000000	11.412639	1.580469	100.000000
1188.000000	11.407289	1.590765	100.000000
1189.000000	11.401997	1.590936	100.000000
1190.000000	11.396769	1.587473	100.000000
1191.000000	11.391583	1.573933	100.000000
1192.000000	11.386427	1.575856	100.000000
1193.000000	11.381305	1.570394	100.000000
1194.000000	11.376206	1.544965	100.000000
1195.000000	11.371118	1.558753	100.000000
1196.000000	11.366041	1.553845	100.000000
1197.000000	11.360967	1.558920	100.000000
1198.000000	11.355874	1.536939	100.000000
1199.000000	11.350763	1.545583	100.000000
1200.000000	11.345638	1.533700	100.000000
1201.000000	11.340493	1.526732	100.000000
1202.000000	11.335346	1.522036	100.000000
1203.000000	11.330215	1.525410	100.000000
1204.000000	11.325094	1.506553	100.000000
1205.000000	11.319984	1.498278	100.000000
1206.000000	11.314898	1.493326	100.000000
1207.000000	11.309847	1.498589	100.000000
1208.000000	11.304834	1.483328	100.000000
1209.000000	11.299887	1.495517	100.000000
1210.000000	11.295031	1.476626	100.000000
1211.000000	11.290275	1.474623	100.000000
1212.000000	11.285637	1.466266	100.000000
1213.000000	11.281121	1.474866	100.000000
1214.000000	11.276725	1.457558	100.000000
1215.000000	11.272458	1.456026	100.000000
1216.000000	11.268317	1.438983	100.000000
1217.000000	11.264298	1.445721	100.000000
1218.000000	11.260406	1.435363	100.000000
1219.000000	11.256648	1.437376	100.000000
1220.000000	11.253038	1.432074	100.000000
1221.000000	11.249585	1.427185	100.000000
1222.000000	11.246276	1.427156	100.000000
1223.000000	11.243098	1.417078	100.000000
1224.000000	11.240050	1.417005	100.000000
1225.000000	11.237125	1.401617	100.000000
1226.000000	11.234318	1.413666	100.000000
1227.000000	11.231641	1.403513	100.000000
1228.000000	11.229114	1.376148	100.000000
1229.000000	11.226747	1.374441	100.000000
1230.000000	11.224538	1.393220	100.000000
1231.000000	11.222490	1.377508	100.000000
1232.000000	11.220618	1.382959	100.000000
1233.000000	11.218943	1.357251	100.000000
1234.000000	11.217458	1.384578	100.000000
1235.000000	11.216153	1.371070	100.000000
1236.000000	11.215049	1.370890	100.000000
1237.000000	11.214162	1.384426	100.000000
1238.000000	11.213495	1.377761	100.000000
1239.000000	11.213036	1.355570	100.000000
1240.000000	11.212753	1.355515	100.000000
1241.000000	11.212631	1.357187	100.000000
1242.000000	11.212669	1.357132	100.000000
1243.000000	11.212860	1.372449	100.000000
1244.000000	11.213182	1.355256	100.000000
1245.000000	11.213628	1.358675	100.000000
1246.000000	11.214191	1.346783	100.000000
1247.000000	11.214857	1.352060	100.000000
1248.000000	11.215615	1.346598	100.000000
1249.000000	11.216462	1.341445	100.000000
1250.000000	11.217396	1.333145	100.000000
1251.000000	11.218421	1.353641	100.000000
1252.000000	11.219540	1.357156	100.000000
1253.000000	11.220756	1.324524	100.000000
1254.000000	11.222069	1.336699	100.000000
1255.000000	11.223483	1.343234	100.000000
1256.000000	11.225010	1.344933	100.000000
1257.000000	11.226671	1.339846	100.000000
1258.000000	11.228467	1.341357	100.000000
1259.000000	11.230388	1.341335	100.000000
1260.000000	11.232434	1.320736	100.000000
1261.000000	11.234615	1.344457	100.000000
1262.000000	11.236942	1.332278	100.000000
1263.000000	11.239424	1.320253	100.000000
1264.000000	11.242070	1.320261	100.000000
1265.000000	11.244875	1.318504	100.000000
1266.000000	11.247804	1.335429	100.000000
1267.000000	11.250836	1.330225	100.000000
1268.000000	11.253975	1.326505	100.000000
1269.000000	11.257221	1.333329	100.000000
1270.000000	11.260562	1.340199	100.000000
1271.000000	11.263993	1.322741	100.000000
1272.000000	11.267485	1.333116	100.000000
1273.000000	11.271007	1.326231	100.000000
1274.000000	11.274574	1.336526	100.000000
1275.000000	11.278218	1.334545	100.000000
1276.000000	11.281956	1.341448	100.000000
1277.000000	11.285807	1.306921	100.000000
1278.000000	11.289787	1.334147	100.000000
1279.000000	11.293881	1.337415	100.000000
1280.000000	11.298072	1.335592	100.000000
1281.000000	11.302366	1.328939	100.000000
1282.000000	11.306765	1.325134	100.000000
1283.000000	11.311264	1.342154	100.000000
1284.000000	11.315852	1.340299	100.000000
1285.000000	11.320524	1.341744	100.000000
1286.000000	11.325273	1.336624	100.000000
1287.000000	11.330076	1.353576	100.000000
1288.000000	11.334907	1.351822	100.000000
1289.000000	11.339764	1.355018	100.000000
1290.000000	11.344642	1.341240	100.000000
1291.000000	11.349542	1.332515	100.000000
1292.000000	11.354477	1.349389	100.000000
1293.000000	11.359429	1.337499	100.000000
1294.000000	11.364381	1.342274	100.000000
1295.000000	11.369340	1.337123	100.000000
1296.000000	11.374321	1.321691	100.000000
1297.000000	11.379337	1.336965	100.000000
1298.000000	11.384386	1.326449	100.000000
1299.000000	11.389470	1.343444	100.000000
1300.000000	11.394602	1.336443	100.000000
1301.000000	11.399778	1.336272	100.000000
1302.000000	11.404997	1.338122	100.000000
1303.000000	11.410272	1.332639	100.000000
1304.000000	11.415571	1.342723	100.000000
1305.000000	11.420856	1.329060	100.000000
1306.000000	11.426129	1.338971	100.000000
1307.000000	11.431388	1.333812	100.000000
1308.000000	11.436603	1.345583	100.000000
1309.000000	11.441747	1.340413	100.000000
1310.000000	11.446808	1.354143	100.000000
1311.000000	11.451783	1.343664	100.000000
1312.000000	11.456668	1.350561	100.000000
1313.000000	11.461463	1.350634	100.000000
1314.000000	11.466159	1.339935	100.000000
1315.000000	11.470746	1.323027	100.000000
1316.000000	11.475237	1.321172	100.000000
1317.000000	11.479644	1.341614	100.000000
1318.000000	11.483977	1.336293	100.000000
1319.000000	11.488233	1.322737	100.000000
1320.000000	11.492414	1.319245	100.000000
1321.000000	11.496519	1.317454	100.000000
1322.000000	11.500554	1.327468	100.000000
1323.000000	11.504515	1.324201	100.000000
1324.000000	11.508388	1.325647	100.000000
1325.000000	11.512163	1.313700	100.000000
1326.000000	11.515849	1.312006	100.000000
1327.000000	11.519443	1.301243	100.000000
1328.000000	11.522933	1.291120	100.000000
1329.000000	11.526318	1.311839	100.000000
1330.000000	11.529596	1.303322	100.000000
1331.000000	11.532775	1.304699	100.000000
1332.000000	11.535876	1.313397	100.000000
1333.000000	11.538900	1.320235	100.000000
1334.000000	11.541834	1.323721	100.000000
1335.000000	11.544683	1.295987	100.000000
1336.000000	11.547467	1.325085	100.000000
1337.000000	11.550196	1.304391	100.000000
1338.000000	11.552879	1.304375	100.000000
1339.000000	11.555532	1.300926	100.000000
1340.000000	11.558191	1.329695	100.000000
1341.000000	11.560875	1.317860	100.000000
1342.000000	11.563586	1.321086	100.000000
1343.000000	11.566342	1.324268	100.000000
1344.000000	11.569167	1.307111	100.000000
1345.000000	11.572072	1.322257	100.000000
1346.000000	11.575071	1.323848	100.000000
1347.000000	11.578187	1.328904	100.000000
1348.000000	11.581424	1.332124	100.000000
1349.000000	11.584752	1.321663	100.000000
1350.000000	11.588148	1.338556	100.000000
1351.000000	11.591609	1.348784	100.000000
1352.000000	11.595140	1.339912	100.000000
1353.000000	11.598740	1.345075	100.000000
1354.000000	11.602406	1.360299	100.000000
1355.000000	11.606150	1.361894	100.000000
1356.000000	11.609984	1.370417	100.000000
1357.000000	11.613912	1.373591	100.000000
1358.000000	11.617928	1.366525	100.000000
1359.000000	11.622031	1.357718	100.000000
1360.000000	11.626231	1.381630	100.000000
1361.000000	11.630535	1.371154	100.000000
1362.000000	11.634940	1.379614	100.000000
1363.000000	11.639435	1.391537	100.000000
1364.000000	11.644015	1.367151	100.000000
1365.000000	11.648682	1.363757	100.000000
1366.000000	11.653446	1.401478	100.000000
1367.000000	11.658307	1.378883	100.000000
1368.000000	11.663250	1.392396	100.000000
1369.000000	11.668271	1.368262	100.000000
1370.000000	11.673359	1.379808	100.000000
1371.000000	11.678492	1.390244	100.000000
1372.000000	11.683656	1.390281	100.000000
1373.000000	11.688846	1.386365	100.000000
1374.000000	11.694056	1.393152	100.000000
1375.000000	11.699271	1.411584	100.000000
1376.000000	11.704472	1.404654	100.000000
1377.000000	11.709651	1.406280	100.000000
1378.000000	11.714811	1.404555	100.000000
1379.000000	11.719938	1.394406	100.000000
1380.000000	11.725012	1.395849	100.000000
1381.000000	11.730034	1.418563	100.000000
1382.000000	11.735009	1.392156	100.000000
1383.000000	11.739919	1.405720	100.000000
1384.000000	11.744743	1.405687	100.000000
1385.000000	11.749487	1.405898	100.000000
1386.000000	11.754174	1.397250	100.000000
1387.000000	11.758807	1.407485	100.000000
1388.000000	11.763374	1.414344	100.000000
1389.000000	11.767882	1.400370	100.000000
1390.000000	11.772343	1.401944	100.000000
1391.000000	11.776747	1.398325	100.000000
1392.000000	11.781077	1.408568	100.000000
1393.000000	11.785334	1.387925	100.000000
1394.000000	11.789530	1.403319	100.000000
1395.000000	11.793666	1.396434	100.000000
1396.000000	11.797729	1.397966	100.000000
1397.000000	11.801718	1.382673	100.000000
1398.000000	11.805625	1.402984	100.000000
1399.000000	11.809446	1.387592	100.000000
1400.000000	11.813203	1.406414	100.000000
1401.000000	11.816899	1.392598	100.000000
1402.000000	11.820529	1.390554	100.000000
1403.000000	11.824095	1.394051	100.000000
1404.000000	11.827614	1.401002	100.000000
1405.000000	11.831113	1.392120	100.000000
1406.000000	11.834600	1.402449	100.000000
1407.000000	11.838062	1.400321	100.000000
1408.000000	11.841495	1.388594	100.000000
1409.000000	11.844909	1.395289	100.000000
1410.000000	11.848321	1.379739	100.000000
1411.000000	11.851741	1.388231	100.000000
1412.000000	11.855174	1.388105	100.000000
1413.000000	11.858618	1.379547	100.000000
1414.000000	11.862078	1.375720	100.000000
1415.000000	11.865554	1.369062	100.000000
1416.000000	11.869040	1.372396	100.000000
1417.000000	11.872532	1.389210	100.000000
1418.000000	11.876015	1.384180	100.000000
1419.000000	11.879470	1.384114	100.000000
1420.000000	11.882889	1.378828	100.000000
1421.000000	11.886264	1.366706	100.000000
1422.000000	11.889589	1.380544	100.000000
1423.000000	11.892867	1.380308	100.000000
1424.000000	11.896098	1.364882	100.000000
1425.000000	11.899264	1.382227	100.000000
1426.000000	11.902359	1.373550	100.000000
1427.000000	11.905379	1.389291	100.000000
1428.000000	11.908328	1.371560	100.000000
1429.000000	11.911220	1.370080	100.000000
1430.000000	11.914060	1.361179	100.000000
1431.000000	11.916841	1.354335	100.000000
1432.000000	11.919564	1.347562	100.000000
1433.000000	11.922236	1.359528	100.000000
1434.000000	11.924860	1.349193	100.000000
1435.000000	11.927435	1.355795	100.000000
1436.000000	11.929956	1.357666	100.000000
1437.000000	11.932426	1.342371	100.000000
1438.000000	11.934859	1.338925	100.000000
1439.000000	11.937267	1.342224	100.000000
1440.000000	11.939648	1.341992	100.000000
1441.000000	11.942005	1.323113	100.000000
1442.000000	11.944343	1.326678	100.000000
1443.000000	11.946666	1.336914	100.000000
1444.000000	11.948961	1.321388	100.000000
1445.000000	11.951207	1.319725	100.000000
1446.000000	11.953416	1.314601	100.000000
1447.000000	11.955600	1.326574	100.000000
1448.000000	11.957737	1.322980	100.000000
1449.000000	11.959811	1.304121	100.000000
1450.000000	11.961823	1.307722	100.000000
1451.000000	11.963765	1.309432	100.000000
1452.000000	11.965615	1.292337	100.000000
1453.000000	11.967354	1.299123	100.000000
1454.000000	11.968976	1.305980	100.000000
1455.000000	11.970492	1.304363	100.000000
1456.000000	11.971907	1.312942	100.000000
1457.000000	11.973215	1.293949	100.000000
1458.000000	11.974403	1.289110	100.000000
1459.000000	11.975469	1.296005	100.000000
1460.000000	11.976412	1.295967	100.000000
1461.000000	11.977229	1.289044	100.000000
1462.000000	11.977935	1.283899	100.000000
1463.000000	11.978542	1.287298	100.000000
1464.000000	11.979055	1.256603	100.000000
1465.000000	11.979486	1.271688	100.000000
1466.000000	11.979844	1.268439	100.000000
1467.000000	11.980141	1.265016	100.000000
1468.000000	11.980421	1.254710	100.000000
1469.000000	11.980719	1.273261	100.000000
1470.000000	11.981046	1.268019	100.000000
1471.000000	11.981419	1.278253	100.000000
1472.000000	11.981868	1.250652	100.000000
1473.000000	11.982409	1.274528	100.000000
1474.000000	11.983038	1.260513	100.000000
1475.000000	11.983774	1.269189	100.000000
1476.000000	11.984644	1.255313	100.000000
1477.000000	11.985655	1.270516	100.000000
1478.000000	11.986810	1.250052	100.000000
1479.000000	11.988114	1.265272	100.000000
1480.000000	11.989567	1.249916	100.000000
1481.000000	11.991158	1.266585	100.000000
1482.000000	11.992872	1.268433	100.000000
1483.000000	11.994704	1.278582	100.000000
1484.000000	11.996653	1.264986	100.000000
1485.000000	11.998721	1.293827	100.000000
1486.000000	12.000900	1.269428	100.000000
1487.000000	12.003184	1.271453	100.000000
1488.000000	12.005578	1.259460	100.000000
1489.000000	12.008089	1.264371	100.000000
1490.000000	12.010718	1.261081	100.000000
1491.000000	12.013472	1.267613	100.000000
1492.000000	12.016351	1.245436	100.000000
1493.000000	12.019347	1.250217	100.000000
1494.000000	12.022453	1.265623	100.000000
1495.000000	12.025665	1.245021	100.000000
1496.000000	12.028981	1.267381	100.000000
1497.000000	12.032382	1.243257	100.000000
1498.000000	12.035838	1.248144	100.000000
1499.000000	12.039331	1.268682	100.000000
1500.000000	12.042853	1.256474	100.000000
1501.000000	12.046386	1.259916	100.000000
1502.000000	12.049919	1.256600	100.000000
1503.000000	12.053450	1.266992	100.000000
1504.000000	12.056976	1.256533	100.000000
1505.000000	12.060482	1.251186	100.000000
1506.000000	12.063957	1.273592	100.000000
1507.000000	12.067393	1.240909	100.000000
1508.000000	12.070779	1.265117	100.000000
1509.000000	12.074098	1.242731	100.000000
1510.000000	12.077345	1.251437	100.000000
1511.000000	12.080532	1.244602	100.000000
1512.000000	12.083654	1.260060	100.000000
1513.000000	12.086705	1.258444	100.000000
1514.000000	12.089695	1.247812	100.000000
1515.000000	12.092611	1.254859	100.000000
1516.000000	12.095450	1.239679	100.000000
1517.000000	12.098219	1.253253	100.000000
1518.000000	12.100916	1.234433	100.000000
1519.000000	12.103548	1.231121	100.000000
1520.000000	12.106118	1.248308	100.000000
1521.000000	12.108614	1.222307	100.000000
1522.000000	12.111037	1.224068	100.000000
1523.000000	12.113392	1.229471	100.000000
1524.000000	12.115681	1.222581	100.000000
1525.000000	12.117900	1.231000	100.000000
1526.000000	12.120038	1.227897	100.000000
1527.000000	12.122097	1.229421	100.000000
1528.000000	12.124077	1.222564	100.000000
1529.000000	12.125980	1.220740	100.000000
1530.000000	12.127827	1.217527	100.000000
1531.000000	12.129635	1.203702	100.000000
1532.000000	12.131407	1.215839	100.000000
1533.000000	12.133143	1.217263	100.000000
1534.000000	12.134852	1.200491	100.000000
1535.000000	12.136550	1.196567	100.000000
1536.000000	12.138248	1.222606	100.000000
1537.000000	12.139955	1.207340	100.000000
1538.000000	12.141677	1.190026	100.000000
1539.000000	12.143419	1.212275	100.000000
1540.000000	12.145212	1.184954	100.000000
1541.000000	12.147086	1.191945	100.000000
1542.000000	12.149042	1.191758	100.000000
1543.000000	12.151078	1.210603	100.000000
1544.000000	12.153215	1.188257	100.000000
1545.000000	12.155467	1.196864	100.000000
1546.000000	12.157841	1.208604	100.000000
1547.000000	12.160349	1.195175	100.000000
1548.000000	12.163004	1.189808	100.000000
1549.000000	12.165815	1.174444	100.000000
1550.000000	12.168777	1.169239	100.000000
1551.000000	12.171891	1.169132	100.000000
1552.000000	12.175144	1.179239	100.000000
1553.000000	12.178515	1.165579	100.000000
1554.000000	12.181998	1.175470	100.000000
1555.000000	12.185579	1.158828	100.000000
1556.000000	12.189223	1.174049	100.000000
1557.000000	12.192921	1.172590	100.000000
1558.000000	12.196687	1.179282	100.000000
1559.000000	12.200526	1.160378	100.000000
1560.000000	12.204440	1.168915	100.000000
1561.000000	12.208426	1.163956	100.000000
1562.000000	12.212471	1.174146	100.000000
1563.000000	12.216567	1.162463	100.000000
1564.000000	12.220722	1.167391	100.000000
1565.000000	12.224958	1.163950	100.000000
1566.000000	12.229276	1.153537	100.000000
1567.000000	12.233669	1.141631	100.000000
1568.000000	12.238133	1.153503	100.000000
1569.000000	12.242680	1.163978	100.000000
1570.000000	12.247323	1.155420	100.000000
1571.000000	12.252057	1.151823	100.000000
1572.000000	12.256864	1.153251	100.000000
1573.000000	12.261737	1.158542	100.000000
1574.000000	12.266673	1.133074	100.000000
1575.000000	12.271671	1.138005	100.000000
1576.000000	12.276732	1.141397	100.000000
1577.000000	12.281849	1.137699	100.000000
1578.000000	12.286998	1.158419	100.000000
1579.000000	12.292156	1.127329	100.000000
1580.000000	12.297306	1.139596	100.000000
1581.000000	12.302444	1.137712	100.000000
1582.000000	12.307572	1.136028	100.000000
1583.000000	12.312690	1.132453	100.000000
1584.000000	12.317799	1.139545	100.000000
1585.000000	12.322879	1.135753	100.000000
1586.000000	12.327917	1.118949	100.000000
1587.000000	12.332918	1.130925	100.000000
1588.000000	12.337888	1.129137	100.000000
1589.000000	12.342813	1.127721	100.000000
1590.000000	12.347678	1.137869	100.000000
1591.000000	12.352477	1.124267	100.000000
1592.000000	12.357208	1.112127	100.000000
1593.000000	12.361868	1.114173	100.000000
1594.000000	12.366474	1.110914	100.000000
1595.000000	12.371031	1.102251	100.000000
1596.000000	12.375529	1.084975	100.000000
1597.000000	12.379960	1.105664	100.000000
1598.000000	12.384335	1.099008	100.000000
1599.000000	12.388656	1.095506	100.000000
1600.000000	12.392912	1.074975	100.000000
1601.000000	12.397094	1.085544	100.000000
1602.000000	12.401202	1.095811	100.000000
1603.000000	12.405227	1.070110	100.000000
1604.000000	12.409158	1.080286	100.000000
1605.000000	12.412979	1.077010	100.000000
1606.000000	12.416673	1.073556	100.000000
1607.000000	12.420224	1.084164	100.000000
1608.000000	12.423609	1.065209	100.000000
1609.000000	12.426822	1.053334	100.000000
1610.000000	12.429881	1.042921	100.000000
1611.000000	12.432798	1.046588	100.000000
1612.000000	12.435574	1.049941	100.000000
1613.000000	12.438211	1.058586	100.000000
1614.000000	12.440713	1.046746	100.000000
1615.000000	12.443082	1.037970	100.000000
1616.000000	12.445321	1.028232	100.000000
1617.000000	12.447441	1.035008	100.000000
1618.000000	12.449445	1.026458	100.000000
1619.000000	12.451333	1.033503	100.000000
1620.000000	12.453114	1.028401	100.000000
1621.000000	12.454804	1.023340	100.000000
1622.000000	12.456415	1.028288	100.000000
1623.000000	12.457947	1.009569	100.000000
1624.000000	12.459406	1.028638	100.000000
1625.000000	12.460816	1.006173	100.000000
1626.000000	12.462207	0.995919	100.000000
1627.000000	12.463592	1.018238	100.000000
1628.000000	12.464989	0.988955	100.000000
1629.000000	12.466412	1.006110	100.000000
1630.000000	12.467860	0.992443	100.000000
1631.000000	12.469329	0.994105	100.000000
1632.000000	12.470818	0.985385	100.000000
1633.000000	12.472320	0.983585	100.000000
1634.000000	12.473831	0.992332	100.000000
1635.000000	12.475339	0.992307	100.000000
1636.000000	12.476836	0.997366	100.000000
1637.000000	12.478328	0.975118	100.000000
1638.000000	12.479819	0.994160	100.000000
1639.000000	12.481294	0.986981	100.000000
1640.000000	12.482728	0.985657	100.000000
1641.000000	12.484123	0.992273	100.000000
1642.000000	12.485508	0.968158	100.000000
1643.000000	12.486887	0.994120	100.000000
1644.000000	12.488244	0.966681	100.000000
1645.000000	12.489589	0.982281	100.000000
1646.000000	12.490928	0.981960	100.000000
1647.000000	12.492252	0.966772	100.000000
1648.000000	12.493570	0.961509	100.000000
1649.000000	12.494884	0.956616	100.000000
1650.000000	12.496170	0.963465	100.000000
1651.000000	12.497399	0.956504	100.000000
1652.000000	12.498563	0.951363	100.000000
1653.000000	12.499659	0.953087	100.000000
1654.000000	12.500700	0.937488	100.000000
1655.000000	12.501690	0.942995	100.000000
1656.000000	12.502615	0.942701	100.000000
1657.000000	12.503454	0.932507	100.000000
1658.000000	12.504179	0.917605	100.000000
1659.000000	12.504777	0.937741	100.000000
1660.000000	12.505243	0.925844	100.000000
1661.000000	12.505551	0.925951	100.000000
1662.000000	12.505674	0.920727	100.000000
1663.000000	12.505611	0.936254	100.000000
1664.000000	12.505354	0.912620	100.000000
1665.000000	12.504891	0.909519	100.000000
1666.000000	12.504228	0.914543	100.000000
1667.000000	12.503373	0.911106	100.000000
1668.000000	12.502329	0.895996	100.000000
1669.000000	12.501091	0.892539	100.000000
1670.000000	12.499639	0.903334	100.000000
1671.000000	12.497963	0.880897	100.000000
1672.000000	12.496078	0.894820	100.000000
1673.000000	12.493995	0.879533	100.000000
1674.000000	12.491719	0.864349	100.000000
1675.000000	12.489255	0.866144	100.000000
1676.000000	12.486604	0.842311	100.000000
1677.000000	12.483779	0.861622	100.000000
1678.000000	12.480781	0.834017	100.000000
1679.000000	12.477598	0.847764	100.000000
1680.000000	12.474223	0.839410	100.000000
1681.000000	12.470671	0.836021	100.000000
1682.000000	12.466944	0.817556	100.000000
1683.000000	12.463028	0.836485	100.000000
1684.000000	12.458904	0.821147	100.000000
1685.000000	12.454566	0.828235	100.000000
1686.000000	12.450022	0.825098	100.000000
1687.000000	12.445287	0.811471	100.000000
1688.000000	12.440372	0.823779	100.000000
1689.000000	12.435292	0.808599	100.000000
1690.000000	12.430066	0.793140	100.000000
1691.000000	12.424716	0.793463	100.000000
1692.000000	12.419278	0.790129	100.000000
1693.000000	12.413779	0.774777	100.000000
1694.000000	12.408235	0.776596	100.000000
1695.000000	12.402667	0.762866	100.000000
1696.000000	12.397118	0.764689	100.000000
1697.000000	12.391639	0.745875	100.000000
1698.000000	12.386261	0.775233	100.000000
1699.000000	12.380998	0.771782	100.000000
1700.000000	12.375881	0.761808	100.000000
1701.000000	12.370926	0.766813	100.000000
1702.000000	12.366122	0.742949	100.000000
1703.000000	12.361461	0.744632	100.000000
1704.000000	12.356946	0.759861	100.000000
1705.000000	12.352574	0.741504	100.000000
1706.000000	12.348347	0.743177	100.000000
1707.000000	12.344282	0.729535	100.000000
1708.000000	12.340392	0.729411	100.000000
1709.000000	12.336665	0.739773	100.000000
1710.000000	12.333098	0.726059	100.000000
1711.000000	12.329700	0.721341	100.000000
1712.000000	12.326463	0.724579	100.000000
1713.000000	12.323373	0.700959	100.000000
1714.000000	12.320419	0.712700	100.000000
1715.000000	12.317592	0.707518	100.000000
1716.000000	12.314890	0.723196	100.000000
1717.000000	12.312314	0.709362	100.000000
1718.000000	12.309853	0.716438	100.000000
1719.000000	12.307497	0.712929	100.000000
1720.000000	12.305244	0.704540	100.000000
1721.000000	12.303117	0.687504	100.000000
1722.000000	12.301129	0.703001	100.000000
1723.000000	12.299270	0.697856	100.000000
1724.000000	12.297523	0.706548	100.000000
1725.000000	12.295885	0.678918	100.000000
1726.000000	12.294365	0.701463	100.000000
1727.000000	12.292964	0.684310	100.000000
1728.000000	12.291675	0.691142	100.000000
1729.000000	12.290487	0.668872	100.000000
1730.000000	12.289368	0.669115	100.000000
1731.000000	12.288289	0.665424	100.000000
1732.000000	12.287243	0.679352	100.000000
1733.000000	12.286246	0.686150	100.000000
1734.000000	12.285300	0.676109	100.000000
1735.000000	12.284387	0.664178	100.000000
1736.000000	12.283494	0.666010	100.000000
1737.000000	12.282629	0.662729	100.000000
1738.000000	12.281798	0.655820	100.000000
1739.000000	12.280998	0.661113	100.000000
1740.000000	12.280217	0.657600	100.000000
1741.000000	12.279452	0.649304	100.000000
1742.000000	12.278722	0.659704	100.000000
1743.000000	12.278046	0.647827	100.000000
1744.000000	12.277433	0.632171	100.000000
1745.000000	12.276900	0.630930	100.000000
1746.000000	12.276465	0.623849	100.000000
1747.000000	12.276134	0.639436	100.000000
1748.000000	12.275900	0.625420	100.000000
1749.000000	12.275754	0.620468	100.000000
1750.000000	12.275689	0.637480	100.000000
1751.000000	12.275696	0.617080	100.000000
1752.000000	12.275770	0.634169	100.000000
1753.000000	12.275912	0.635832	100.000000
1754.000000	12.276117	0.627358	100.000000
1755.000000	12.276382	0.615297	100.000000
1756.000000	12.276708	0.629085	100.000000
1757.000000	12.277093	0.617319	100.000000
1758.000000	12.277538	0.610536	100.000000
1759.000000	12.278029	0.610628	100.000000
1760.000000	12.278548	0.612278	100.000000
1761.000000	12.279089	0.610696	100.000000
1762.000000	12.279658	0.591785	100.000000
1763.000000	12.280256	0.593581	100.000000
1764.000000	12.280880	0.615967	100.000000
1765.000000	12.281532	0.600655	100.000000
1766.000000	12.282220	0.593869	100.000000
1767.000000	12.282942	0.599061	100.000000
1768.000000	12.283689	0.592110	100.000000
1769.000000	12.284454	0.573686	100.000000
1770.000000	12.285227	0.571802	100.000000
1771.000000	12.286004	0.587247	100.000000
1772.000000	12.286779	0.578688	100.000000
1773.000000	12.287535	0.582189	100.000000
1774.000000	12.288259	0.575353	100.000000
1775.000000	12.288953	0.566794	100.000000
1776.000000	12.289607	0.587534	100.000000
1777.000000	12.290203	0.575279	100.000000
1778.000000	12.290734	0.570392	100.000000
1779.000000	12.291197	0.572252	100.000000
1780.000000	12.291578	0.558836	100.000000
1781.000000	12.291869	0.576078	100.000000
1782.000000	12.292079	0.562516	100.000000
1783.000000	12.292222	0.552393	100.000000
1784.000000	12.292304	0.557663	100.000000
1785.000000	12.292324	0.526844	100.000000
1786.000000	12.292292	0.528748	100.000000
1787.000000	12.292220	0.535674	100.000000
1788.000000	12.292112	0.537386	100.000000
1789.000000	12.291967	0.528979	100.000000
1790.000000	12.291767	0.508536	100.000000
1791.000000	12.291507	0.498355	100.000000
1792.000000	12.291186	0.512099	100.000000
1793.000000	12.290779	0.520903	100.000000
1794.000000	12.290266	0.491919	100.000000
1795.000000	12.289648	0.500746	100.000000
1796.000000	12.288929	0.488874	100.000000
1797.000000	12.288105	0.492252	100.000000
1798.000000	12.287155	0.475400	100.000000
1799.000000	12.286065	0.475534	100.000000
1800.000000	12.284826	0.479279	100.000000
1801.000000	12.283443	0.482779	100.000000
1802.000000	12.281907	0.483170	100.000000
1803.000000	12.280201	0.481500	100.000000
1804.000000	12.278338	0.458014	100.000000
1805.000000	12.276341	0.458115	100.000000
1806.000000	12.274206	0.454825	100.000000
1807.000000	12.271931	0.422627	100.000000
1808.000000	12.269540	0.431302	100.000000
1809.000000	12.267046	0.436785	100.000000
1810.000000	12.264452	0.413046	100.000000
1811.000000	12.261759	0.402744	100.000000
1812.000000	12.258969	0.416727	100.000000
1813.000000	12.256082	0.403362	100.000000
1814.000000	12.253091	0.388171	100.000000
1815.000000	12.249981	0.398676	100.000000
1816.000000	12.246748	0.376626	100.000000
1817.000000	12.243396	0.381902	100.000000
1818.000000	12.239917	0.365214	100.000000
1819.000000	12.236302	0.368884	100.000000
1820.000000	12.232549	0.352087	100.000000
1821.000000	12.228665	0.336874	100.000000
1822.000000	12.224650	0.347555	100.000000
1823.000000	12.220495	0.341065	100.000000
1824.000000	12.216189	0.334338	100.000000
1825.000000	12.211722	0.324462	100.000000
1826.000000	12.207092	0.307729	100.000000
1827.000000	12.202300	0.323459	100.000000
1828.000000	12.197343	0.291304	100.000000
1829.000000	12.192221	0.291539	100.000000
1830.000000	12.186928	0.273102	100.000000
1831.000000	12.181464	0.276805	100.000000
1832.000000	12.175836	0.254888	100.000000
1833.000000	12.170060	0.274409	100.000000
1834.000000	12.164151	0.250805	100.000000
1835.000000	12.158092	0.238729	100.000000
1836.000000	12.151855	0.232453	100.000000
1837.000000	12.145447	0.232453	100.000000
1838.000000	12.138883	0.219418	100.000000
1839.000000	12.132164	0.204145	100.000000
1840.000000	12.125302	0.204290	100.000000
1841.000000	12.118303	0.203255	100.000000
1842.000000	12.111168	0.194648	100.000000
1843.000000	12.103877	0.183246	100.000000
1844.000000	12.096416	0.171423	100.000000
1845.000000	12.088786	0.182158	100.000000
1846.000000	12.080994	0.155405	100.000000
1847.000000	12.073053	0.148750	100.000000
1848.000000	12.064981	0.145755	100.000000
1849.000000	12.056808	0.137618	100.000000
1850.000000	12.048541	0.124300	100.000000
1851.000000	12.040182	0.124481	100.000000
1852.000000	12.031740	0.114387	100.000000
1853.000000	12.023220	0.101179	100.000000
1854.000000	12.014638	0.091421	100.000000
1855.000000	12.006017	0.095214	100.000000
1856.000000	11.997376	0.093477	100.000000
1857.000000	11.988731	0.075127	100.000000
1858.000000	11.980093	0.064983	100.000000
1859.000000	11.971458	0.073898	100.000000
1860.000000	11.962849	0.046750	100.000000
1861.000000	11.954281	0.050327	100.000000
1862.000000	11.945744	0.026769	100.000000
1863.000000	11.937236	0.018329	100.000000
1864.000000	11.928746	0.029015	100.000000
1865.000000	11.920267	0.022373	100.000000
1866.000000	11.911806	0.005444	100.000000
1867.000000	11.903366	0.004030	100.000000
1868.000000	11.894957	-0.014343	100.000000
1869.000000	11.886587	-0.004090	100.000000
1870.000000	11.878256	-0.014092	100.000000
1871.000000	11.869977	-0.013642	100.000000
1872.000000	11.861762	-0.016616	100.000000
1873.000000	11.853621	-0.014825	100.000000
1874.000000	11.845569	-0.036876	100.000000
1875.000000	11.837608	-0.031495	100.000000
1876.000000	11.829741	-0.056938	100.000000
1877.000000	11.821971	-0.053306	100.000000
1878.000000	11.814307	-0.066861	100.000000
1879.000000	11.806760	-0.063045	100.000000
1880.000000	11.799354	-0.071656	100.000000
1881.000000	11.792113	-0.079739	100.000000
1882.000000	11.785051	-0.078137	100.000000
1883.000000	11.778168	-0.069675	100.000000
1884.000000	11.771484	-0.086306	100.000000
1885.000000	11.765036	-0.084585	100.000000
1886.000000	11.758857	-0.100248	100.000000
1887.000000	11.752968	-0.091654	100.000000
1888.000000	11.747378	-0.072920	100.000000
1889.000000	11.742103	-0.105294	100.000000
1890.000000	11.737160	-0.100436	100.000000
1891.000000	11.732555	-0.103811	100.000000
1892.000000	11.728298	-0.097093	100.000000
1893.000000	11.724387	-0.102165	100.000000
1894.000000	11.720807	-0.098567	100.000000
1895.000000	11.717568	-0.096839	100.000000
1896.000000	11.714689	-0.095242	100.000000
1897.000000	11.712181	-0.096896	100.000000
1898.000000	11.710033	-0.098580	100.000000
1899.000000	11.708221	-0.102283	100.000000
1900.000000	11.706740	-0.103800	100.000000
1901.000000	11.705598	-0.107235	100.000000
1902.000000	11.704797	-0.112571	100.000000
1903.000000	11.704337	-0.109168	100.000000
1904.000000	11.704202	-0.114372	100.000000
1905.000000	11.704365	-0.107465	100.000000
1906.000000	11.704814	-0.107522	100.000000
1907.000000	11.705543	-0.119573	100.000000
1908.000000	11.706538	-0.112722	100.000000
1909.000000	11.707773	-0.116226	100.000000
1910.000000	11.709227	-0.124775	100.000000
1911.000000	11.710884	-0.117882	100.000000
1912.000000	11.712728	-0.117997	100.000000
1913.000000	11.714737	-0.094224	100.000000
1914.000000	11.716870	-0.089268	100.000000
1915.000000	11.719095	-0.109693	100.000000
1916.000000	11.721401	-0.117985	100.000000
1917.000000	11.723789	-0.116575	100.000000
1918.000000	11.726259	-0.112939	100.000000
1919.000000	11.728786	-0.099376	100.000000
1920.000000	11.731348	-0.116522	100.000000
1921.000000	11.733943	-0.110003	100.000000
1922.000000	11.736571	-0.113308	100.000000
1923.000000	11.739235	-0.120210	100.000000
1924.000000	11.741944	-0.128865	100.000000
1925.000000	11.744719	-0.125308	100.000000
1926.000000	11.747572	-0.123891	100.000000
1927.000000	11.750505	-0.106678	100.000000
1928.000000	11.753496	-0.103346	100.000000
1929.000000	11.756535	-0.124036	100.000000
1930.000000	11.759637	-0.127454	100.000000
1931.000000	11.762818	-0.106748	100.000000
1932.000000	11.766084	-0.115373	100.000000
1933.000000	11.769440	-0.113684	100.000000
1934.000000	11.772873	-0.139699	100.000000
1935.000000	11.776368	-0.114104	100.000000
1936.000000	11.779896	-0.120851	100.000000
1937.000000	11.783426	-0.122617	100.000000
1938.000000	11.786957	-0.124519	100.000000
1939.000000	11.790495	-0.110605	100.000000
1940.000000	11.794029	-0.116103	100.000000
1941.000000	11.797541	-0.108956	100.000000
1942.000000	11.801012	-0.105732	100.000000
1943.000000	11.804416	-0.111047	100.000000
1944.000000	11.807739	-0.119416	100.000000
1945.000000	11.810987	-0.119359	100.000000
1946.000000	11.814159	-0.105677	100.000000
1947.000000	11.817250	-0.124648	100.000000
1948.000000	11.820253	-0.112658	100.000000
1949.000000	11.823177	-0.120998	100.000000
1950.000000	11.826052	-0.109190	100.000000
1951.000000	11.828893	-0.119467	100.000000
1952.000000	11.831688	-0.127971	100.000000
1953.000000	11.834433	-0.107460	100.000000
1954.000000	11.837128	-0.122956	100.000000
1955.000000	11.839769	-0.114248	100.000000
1956.000000	11.842367	-0.133132	100.000000
1957.000000	11.844942	-0.107663	100.000000
1958.000000	11.847527	-0.114497	100.000000
1959.000000	11.850153	-0.123209	100.000000
1960.000000	11.852817	-0.118023	100.000000
1961.000000	11.855508	-0.123406	100.000000
1962.000000	11.858220	-0.123652	100.000000
1963.000000	11.860954	-0.128816	100.000000
1964.000000	11.863717	-0.116634	100.000000
1965.000000	11.866506	-0.120510	100.000000
1966.000000	11.869320	-0.103204	100.000000
1967.000000	11.872166	-0.118741	100.000000
1968.000000	11.875054	-0.105118	100.000000
1969.000000	11.877997	-0.106742	100.000000
1970.000000	11.881003	-0.093125	100.000000
1971.000000	11.884066	-0.117420	100.000000
1972.000000	11.887183	-0.102052	100.000000
1973.000000	11.890367	-0.091596	100.000000
1974.000000	11.893629	-0.093502	100.000000
1975.000000	11.896972	-0.085018	100.000000
1976.000000	11.900401	-0.110853	100.000000
1977.000000	11.903931	-0.088863	100.000000
1978.000000	11.907581	-0.093816	100.000000
1979.000000	11.911373	-0.087436	100.000000
1980.000000	11.915311	-0.089012	100.000000
1981.000000	11.919388	-0.094450	100.000000
1982.000000	11.923599	-0.065478	100.000000
1983.000000	11.927934	-0.082701	100.000000
1984.000000	11.932382	-0.069518	100.000000
1985.000000	11.936923	-0.070828	100.000000
1986.000000	11.941557	-0.076232	100.000000
1987.000000	11.946290	-0.079632	100.000000
1988.000000	11.951118	-0.054129	100.000000
1989.000000	11.956023	-0.071182	100.000000
1990.000000	11.960988	-0.054250	100.000000
1991.000000	11.966003	-0.076421	100.000000
1992.000000	11.971072	-0.037147	100.000000
1993.000000	11.976191	-0.045893	100.000000
1994.000000	11.981349	-0.057899	100.000000
1995.000000	11.986529	-0.051358	100.000000
1996.000000	11.991728	-0.046097	100.000000
1997.000000	11.996951	-0.059765	100.000000
1998.000000	12.002191	-0.053044	100.000000
1999.000000	12.007446	-0.030898	100.000000
2000.000000	12.012717	-0.029100	100.000000
2001.000000	12.017997	-0.055363	100.000000
2002.000000	12.023280	-0.046905	100.000000
2003.000000	12.028571	-0.050240	100.000000
2004.000000	12.033889	-0.033426	100.000000
2005.000000	12.039242	-0.028296	100.000000
2006.000000	12.044617	-0.040389	100.000000
2007.000000	12.050016	-0.031899	100.000000
2008.000000	12.055451	-0.026879	100.000000
2009.000000	12.060914	-0.022155	100.000000
2010.000000	12.066384	-0.011694	100.000000
2011.000000	12.071865	-0.017130	100.000000
2012.000000	12.077349	-0.001784	100.000000
2013.000000	12.082812	0.008185	100.000000
2014.000000	12.088251	-0.012290	100.000000
2015.000000	12.093675	0.008177	100.000000
2016.000000	12.099085	-0.015885	100.000000
2017.000000	12.104483	0.026921	100.000000
2018.000000	12.109881	0.016451	100.000000
2019.000000	12.115290	0.012999	100.000000
2020.000000	12.120702	0.038585	100.000000
2021.000000	12.126105	0.004135	100.000000
2022.000000	12.131504	0.021050	100.000000
2023.000000	12.136912	0.027921	100.000000
2024.000000	12.142336	0.034460	100.000000
2025.000000	12.147793	0.019030	100.000000
2026.000000	12.153295	0.034340	100.000000
2027.000000	12.158827	0.037546	100.000000
2028.000000	12.164386	0.026901	100.000000
2029.000000	12.169972	0.026560	100.000000
2030.000000	12.175577	0.042377	100.000000
2031.000000	12.181197	0.043843	100.000000
2032.000000	12.186833	0.062386	100.000000
2033.000000	12.192484	0.055477	100.000000
2034.000000	12.198132	0.063788	100.000000
2035.000000	12.203754	0.055101	100.000000
2036.000000	12.209344	0.068758	100.000000
2037.000000	12.214903	0.079019	100.000000
2038.000000	12.220437	0.082356	100.000000
2039.000000	12.225952	0.073473	100.000000
2040.000000	12.231441	0.077101	100.000000
2041.000000	12.236899	0.090527	100.000000
2042.000000	12.242321	0.088642	100.000000
2043.000000	12.247702	0.100452	100.000000
2044.000000	12.253045	0.102263	100.000000
2045.000000	12.258347	0.100266	100.000000
2046.000000	12.263605	0.102073	100.000000
2047.000000	12.268806	0.103714	100.000000
2048.000000	12.273946	0.098348	100.000000
2049.000000	12.279030	0.100094	100.000000
2050.000000	12.284071	0.115339	100.000000
2051.000000	12.289089	0.106957	100.000000
2052.000000	12.294097	0.115159	100.000000
2053.000000	12.299088	0.101304	100.000000
2054.000000	12.304045	0.140523	100.000000
2055.000000	12.308955	0.115096	100.000000
2056.000000	12.313813	0.114887	100.000000
2057.000000	12.318625	0.124752	100.000000
2058.000000	12.323401	0.117853	100.000000
2059.000000	12.328143	0.139990	100.000000
2060.000000	12.332851	0.115856	100.000000
2061.000000	12.337534	0.122515	100.000000
2062.000000	12.342201	0.117335	100.000000
2063.000000	12.346863	0.149733	100.000000
2064.000000	12.351518	0.134183	100.000000
2065.000000	12.356153	0.156307	100.000000
2066.000000	12.360759	0.132135	100.000000
2067.000000	12.365336	0.137241	100.000000
2068.000000	12.369901	0.152687	100.000000
2069.000000	12.374481	0.148929	100.000000
2070.000000	12.379088	0.165909	100.000000
2071.000000	12.383720	0.155548	100.000000
2072.000000	12.388390	0.176025	100.000000
2073.000000	12.393126	0.170568	100.000000
2074.000000	12.397945	0.164930	100.000000
2075.000000	12.402838	0.194119	100.000000
2076.000000	12.407808	0.190417	100.000000
2077.000000	12.412899	0.189715	100.000000
2078.000000	12.418147	0.189709	100.000000
2079.000000	12.423590	0.192927	100.000000
2080.000000	12.429273	0.197722	100.000000
2081.000000	12.435227	0.210801	100.000000
2082.000000	12.441470	0.220874	100.000000
2083.000000	12.448026	0.232497	100.000000
2084.000000	12.454910	0.250881	100.000000
2085.000000	12.462106	0.246981	100.000000
2086.000000	12.469585	0.265241	100.000000
2087.000000	12.477344	0.266929	100.000000
2088.000000	12.485403	0.281534	100.000000
2089.000000	12.493756	0.293306	100.000000
2090.000000	12.502374	0.308172	100.000000
2091.000000	12.511259	0.280310	100.000000
2092.000000	12.520417	0.328022	100.000000
2093.000000	12.529849	0.324218	100.000000
2094.000000	12.539557	0.339195	100.000000
2095.000000	12.549536	0.343712	100.000000
2096.000000	12.559769	0.368959	100.000000
2097.000000	12.570250	0.356605	100.000000
2098.000000	12.580994	0.383501	100.000000
2099.000000	12.591995	0.379527	100.000000
2100.000000	12.603231	0.387762	100.000000
2101.000000	12.614688	0.408021	100.000000
2102.000000	12.626350	0.405499	100.000000
2103.000000	12.638191	0.415429	100.000000
2104.000000	12.650188	0.426980	100.000000
2105.000000	12.662327	0.423057	100.000000
2106.000000	12.674604	0.434666	100.000000
2107.000000	12.687005	0.449538	100.000000
2108.000000	12.699503	0.451058	100.000000
2109.000000	12.712084	0.465999	100.000000
2110.000000	12.724739	0.487709	100.000000
2111.000000	12.737447	0.493994	100.000000
2112.000000	12.750183	0.472963	100.000000
2113.000000	12.762934	0.498371	100.000000
2114.000000	12.775696	0.489481	100.000000
2115.000000	12.788455	0.504358	100.000000
2116.000000	12.801175	0.505713	100.000000
2117.000000	12.813840	0.532810	100.000000
2118.000000	12.826461	0.525371	100.000000
2119.000000	12.839052	0.542108	100.000000
2120.000000	12.851621	0.541624	100.000000
2121.000000	12.864181	0.553086	100.000000
2122.000000	12.876745	0.546137	100.000000
2123.000000	12.889328	0.552063	100.000000
2124.000000	12.901928	0.562045	100.000000
2125.000000	12.914536	0.569972	100.000000
2126.000000	12.927148	0.581410	100.000000
2127.000000	12.939773	0.589613	100.000000
2128.000000	12.952423	0.592377	100.000000
2129.000000	12.965095	0.590242	100.000000
2130.000000	12.977788	0.600086	100.000000
2131.000000	12.990503	0.616759	100.000000
2132.000000	13.003238	0.633159	100.000000
2133.000000	13.015989	0.629162	100.000000
2134.000000	13.028756	0.637299	100.000000
2135.000000	13.041545	0.679342	100.000000
2136.000000	13.054374	0.666712	100.000000
2137.000000	13.067289	0.673124	100.000000
2138.000000	13.080326	0.682430	100.000000
2139.000000	13.093500	0.689079	100.000000
2140.000000	13.106810	0.726277	100.000000
2141.000000	13.120260	0.689852	100.000000
2142.000000	13.133855	0.723397	100.000000
2143.000000	13.147605	0.724492	100.000000
2144.000000	13.161520	0.729031	100.000000
2145.000000	13.175603	0.755914	100.000000
2146.000000	13.189848	0.755396	100.000000
2147.000000	13.204236	0.756244	100.000000
2148.000000	13.218743	0.767709	100.000000
2149.000000	13.233346	0.775673	100.000000
2150.000000	13.248032	0.785672	100.000000
2151.000000	13.262802	0.803777	100.000000
2152.000000	13.277637	0.791000	100.000000
2153.000000	13.292512	0.797533	100.000000
2154.000000	13.307417	0.814210	100.000000
2155.000000	13.322339	0.816962	100.000000
2156.000000	13.337252	0.828682	100.000000
2157.000000	13.352129	0.845238	100.000000
2158.000000	13.366954	0.855091	100.000000
2159.000000	13.381722	0.861506	100.000000
2160.000000	13.396430	0.857262	100.000000
2161.000000	13.411076	0.870926	100.000000
2162.000000	13.425653	0.870457	100.000000
2163.000000	13.440151	0.878660	100.000000
2164.000000	13.454570	0.883175	100.000000
2165.000000	13.468906	0.891565	100.000000
2166.000000	13.483137	0.884179	100.000000
2167.000000	13.497248	0.892369	100.000000
2168.000000	13.511249	0.895277	100.000000
2169.000000	13.525150	0.898427	100.000000
2170.000000	13.538957	0.910041	100.000000
2171.000000	13.552678	0.921402	100.000000
2172.000000	13.566318	0.890077	100.000000
2173.000000	13.579885	0.924163	100.000000
2174.000000	13.593381	0.944294	100.000000
2175.000000	13.606794	0.931904	100.000000
2176.000000	13.620117	0.946566	100.000000
2177.000000	13.633344	0.946173	100.000000
2178.000000	13.646476	0.962974	100.000000
2179.000000	13.659523	0.945440	100.000000
2180.000000	13.672494	0.967334	100.000000
2181.000000	13.685368	0.972031	100.000000
2182.000000	13.698120	0.983660	100.000000
2183.000000	13.710746	0.997302	100.000000
2184.000000	13.723238	0.984549	100.000000
2185.000000	13.735580	0.984560	100.000000
2186.000000	13.747779	0.999436	100.000000
2187.000000	13.759850	0.988731	100.000000
2188.000000	13.771785	0.999097	100.000000
2189.000000	13.783564	0.991943	100.000000
2190.000000	13.795196	0.998366	100.000000
2191.000000	13.806708	1.017061	100.000000
2192.000000	13.818116	1.003063	100.000000
2193.000000	13.829405	1.007771	100.000000
2194.000000	13.840564	0.998696	100.000000
2195.000000	13.851604	1.029267	100.000000
2196.000000	13.862526	1.017118	100.000000
2197.000000	13.873319	1.020194	100.000000
2198.000000	13.883975	1.021532	100.000000
2199.000000	13.894489	1.027992	100.000000
2200.000000	13.904865	1.020972	100.000000
2201.000000	13.915105	1.037647	100.000000
2202.000000	13.925185	1.039308	100.000000
2203.000000	13.935083	1.042567	100.000000
2204.000000	13.944800	1.028444	100.000000
2205.000000	13.954337	1.041756	100.000000
2206.000000	13.963685	1.057086	100.000000
2207.000000	13.972839	1.045019	100.000000
2208.000000	13.981810	1.053209	100.000000
2209.000000	13.990596	1.046102	100.000000
2210.000000	13.999192	1.033758	100.000000
2211.000000	14.007601	1.042310	100.000000
2212.000000	14.015833	1.055805	100.000000
2213.000000	14.023915	1.060825	100.000000
2214.000000	14.031876	1.046658	100.000000
2215.000000	14.039734	1.034319	100.000000
2216.000000	14.047505	1.037720	100.000000
2217.000000	14.055201	1.054499	100.000000
2218.000000	14.062821	1.045851	100.000000
2219.000000	14.070369	1.054198	100.000000
2220.000000	14.077845	1.050445	100.000000
2221.000000	14.085243	1.051725	100.000000
2222.000000	14.092574	1.051992	100.000000
2223.000000	14.099852	1.068648	100.000000
2224.000000	14.107064	1.053020	100.000000
2225.000000	14.114204	1.044320	100.000000
2226.000000	14.121272	1.061286	100.000000
2227.000000	14.128264	1.062793	100.000000
2228.000000	14.135179	1.048828	100.000000
2229.000000	14.142020	1.060733	100.000000
2230.000000	14.148782	1.046731	100.000000
2231.000000	14.155442	1.046709	100.000000
2232.000000	14.161973	1.043081	100.000000
2233.000000	14.168365	1.044778	100.000000
2234.000000	14.174621	1.053258	100.000000
2235.000000	14.180743	1.054943	100.000000
2236.000000	14.186715	1.068334	100.000000
2237.000000	14.192504	1.051292	100.000000
2238.000000	14.198095	1.054665	100.000000
2239.000000	14.203490	1.046070	100.000000
2240.000000	14.208691	1.052897	100.000000
2241.000000	14.213707	1.047844	100.000000
2242.000000	14.218522	1.046450	100.000000
2243.000000	14.223123	1.042541	100.000000
2244.000000	14.227514	1.044449	100.000000
2245.000000	14.231696	1.029029	100.000000
2246.000000	14.235685	1.047988	100.000000
2247.000000	14.239486	1.023894	100.000000
2248.000000	14.243086	1.013533	100.000000
2249.000000	14.246478	1.009955	100.000000
2250.000000	14.249662	1.013666	100.000000
2251.000000	14.252646	1.003282	100.000000
2252.000000	14.255428	1.015171	100.000000
2253.000000	14.257980	1.011648	100.000000
2254.000000	14.260287	1.011848	100.000000
2255.000000	14.262349	1.010150	100.000000
2256.000000	14.264152	0.986356	100.000000
2257.000000	14.265676	0.979374	100.000000
2258.000000	14.266908	0.993539	100.000000
2259.000000	14.267832	0.989862	100.000000
2260.000000	14.268432	0.997164	100.000000
2261.000000	14.268695	0.968282	100.000000
2262.000000	14.268625	0.973448	100.000000
2263.000000	14.268231	0.968620	100.000000
2264.000000	14.267522	0.942948	100.000000
2265.000000	14.266515	0.956794	100.000000
2266.000000	14.265227	0.934734	100.000000
2267.000000	14.263665	0.933111	100.000000
2268.000000	14.261837	0.945318	100.000000
2269.000000	14.259754	0.926720	100.000000
2270.000000	14.257420	0.912927	100.000000
2271.000000	14.254832	0.897887	100.000000
2272.000000	14.251985	0.897733	100.000000
2273.000000	14.248875	0.901512	100.000000
2274.000000	14.245514	0.910259	100.000000
2275.000000	14.241918	0.874360	100.000000
2276.000000	14.238092	0.877886	100.000000
2277.000000	14.234026	0.876461	100.000000
2278.000000	14.229704	0.878239	100.000000
2279.000000	14.225135	0.871950	100.000000
2280.000000	14.220347	0.856627	100.000000
2281.000000	14.215352	0.863581	100.000000
2282.000000	14.210145	0.850165	100.000000
2283.000000	14.204738	0.831586	100.000000
2284.000000	14.199148	0.836975	100.000000
2285.000000	14.193390	0.840685	100.000000
2286.000000	14.187492	0.825682	100.000000
2287.000000	14.181483	0.819091	100.000000
2288.000000	14.175377	0.793308	100.000000
2289.000000	14.169167	0.821026	100.000000
2290.000000	14.162846	0.785321	100.000000
2291.000000	14.156420	0.781981	100.000000
2292.000000	14.149890	0.792570	100.000000
2293.000000	14.143240	0.779011	100.000000
2294.000000	14.136453	0.777660	100.000000
2295.000000	14.129539	0.770909	100.000000
2296.000000	14.122513	0.757576	100.000000
2297.000000	14.115374	0.740804	100.000000
2298.000000	14.108122	0.753041	100.000000
2299.000000	14.100762	0.753162	100.000000
2300.000000	14.093302	0.734392	100.000000
2301.000000	14.085748	0.735107	100.000000
2302.000000	14.078104	0.721126	100.000000
2303.000000	14.070383	0.714618	100.000000
2304.000000	14.062602	0.716621	100.000000
2305.000000	14.054768	0.711820	100.000000
2306.000000	14.046893	0.677843	100.000000
2307.000000	14.038991	0.690089	100.000000
2308.000000	14.031056	0.678133	100.000000
2309.000000	14.023079	0.676573	100.000000
2310.000000	14.015087	0.666471	100.000000
2311.000000	14.007118	0.651202	100.000000
2312.000000	13.999175	0.666608	100.000000
2313.000000	13.991263	0.661698	100.000000
2314.000000	13.983407	0.653137	100.000000
2315.000000	13.975618	0.636229	100.000000
2316.000000	13.967897	0.637885	100.000000
2317.000000	13.960252	0.639893	100.000000
2318.000000	13.952693	0.640011	100.000000
2319.000000	13.945220	0.642123	100.000000
2320.000000	13.937833	0.630079	100.000000
2321.000000	13.930525	0.611494	100.000000
2322.000000	13.923291	0.620545	100.000000
2323.000000	13.916138	0.606692	100.000000
2324.000000	13.909069	0.629498	100.000000
2325.000000	13.902090	0.614087	100.000000
2326.000000	13.895215	0.593825	100.000000
2327.000000	13.888462	0.573214	100.000000
2328.000000	13.881838	0.569891	100.000000
2329.000000	13.875336	0.580446	100.000000
2330.000000	13.868963	0.573740	100.000000
2331.000000	13.862737	0.568695	100.000000
2332.000000	13.856676	0.563558	100.000000
2333.000000	13.850786	0.546129	100.000000
2334.000000	13.845068	0.565295	100.000000
2335.000000	13.839539	0.558457	100.000000
2336.000000	13.834220	0.553500	100.000000
2337.000000	13.829135	0.565323	100.000000
2338.000000	13.824275	0.560274	100.000000
2339.000000	13.819633	0.566949	100.000000
2340.000000	13.815227	0.548434	100.000000
2341.000000	13.811080	0.563693	100.000000
2342.000000	13.807198	0.549972	100.000000
2343.000000	13.803578	0.549793	100.000000
2344.000000	13.800215	0.543001	100.000000
2345.000000	13.797123	0.538052	100.000000
2346.000000	13.794326	0.537979	100.000000
2347.000000	13.791838	0.544990	100.000000
2348.000000	13.789662	0.541333	100.000000
2349.000000	13.787791	0.561913	100.000000
2350.000000	13.786225	0.548173	100.000000
2351.000000	13.784993	0.527425	100.000000
2352.000000	13.784119	0.542849	100.000000
2353.000000	13.783608	0.554699	100.000000
2354.000000	13.783466	0.550977	100.000000
2355.000000	13.783705	0.552489	100.000000
2356.000000	13.784337	0.553988	100.000000
2357.000000	13.785370	0.560679	100.000000
2358.000000	13.786800	0.573881	100.000000
2359.000000	13.788620	0.544635	100.000000
2360.000000	13.790822	0.571685	100.000000
2361.000000	13.793393	0.582005	100.000000
2362.000000	13.796321	0.583535	100.000000
2363.000000	13.799588	0.581728	100.000000
2364.000000	13.803189	0.596777	100.000000
2365.000000	13.807123	0.588041	100.000000
2366.000000	13.811376	0.596402	100.000000
2367.000000	13.815930	0.599598	100.000000
2368.000000	13.820774	0.603172	100.000000
2369.000000	13.825898	0.619741	100.000000
2370.000000	13.831284	0.600915	100.000000
2371.000000	13.836924	0.604074	100.000000
2372.000000	13.842826	0.619190	100.000000
2373.000000	13.848989	0.617098	100.000000
2374.000000	13.855406	0.634113	100.000000
2375.000000	13.862074	0.621745	100.000000
2376.000000	13.868987	0.619744	100.000000
2377.000000	13.876131	0.636612	100.000000
2378.000000	13.883480	0.636366	100.000000
2379.000000	13.891001	0.635988	100.000000
2380.000000	13.898668	0.642582	100.000000
2381.000000	13.906465	0.664305	100.000000
2382.000000	13.914339	0.664381	100.000000
2383.000000	13.922247	0.670989	100.000000
2384.000000	13.930198	0.651747	100.000000
2385.000000	13.938197	0.667006	100.000000
2386.000000	13.946245	0.670284	100.000000
2387.000000	13.954337	0.680277	100.000000
2388.000000	13.962467	0.684869	100.000000
2389.000000	13.970626	0.695059	100.000000
2390.000000	13.978806	0.693091	100.000000
2391.000000	13.987007	0.687666	100.000000
2392.000000	13.995239	0.677276	100.000000
2393.000000	14.003498	0.683726	100.000000
2394.000000	14.011759	0.709000	100.000000
2395.000000	14.020001	0.700230	100.000000
2396.000000	14.028228	0.703593	100.000000
2397.000000	14.036441	0.711922	100.000000
2398.000000	14.044639	0.720387	100.000000
2399.000000	14.052811	0.709322	100.000000
2400.000000	14.060939	0.714444	100.000000
2401.000000	14.069009	0.725911	100.000000
2402.000000	14.077022	0.725573	100.000000
2403.000000	14.084978	0.725520	100.000000
2404.000000	14.092878	0.732040	100.000000
2405.000000	14.100705	0.723193	100.000000
2406.000000	14.108455	0.736750	100.000000
2407.000000	14.116139	0.715906	100.000000
2408.000000	14.123759	0.741347	100.000000
2409.000000	14.131299	0.739309	100.000000
2410.000000	14.138741	0.749258	100.000000
2411.000000	14.146067	0.749424	100.000000
2412.000000	14.153269	0.752199	100.000000
2413.000000	14.160335	0.728151	100.000000
2414.000000	14.167255	0.755318	100.000000
2415.000000	14.174043	0.755328	100.000000
2416.000000	14.180722	0.765242	100.000000
2417.000000	14.187309	0.749892	100.000000
2418.000000	14.193813	0.764834	100.000000
2419.000000	14.200234	0.756183	100.000000
2420.000000	14.206587	0.755836	100.000000
2421.000000	14.212897	0.750434	100.000000
2422.000000	14.219180	0.755271	100.000000
2423.000000	14.225442	0.756829	100.000000
2424.000000	14.231692	0.770345	100.000000
2425.000000	14.237952	0.773521	100.000000
2426.000000	14.244234	0.772922	100.000000
2427.000000	14.250539	0.769293	100.000000
2428.000000	14.256865	0.782515	100.000000
2429.000000	14.263204	0.765168	100.000000
2430.000000	14.269562	0.770088	100.000000
2431.000000	14.275943	0.783249	100.000000
2432.000000	14.282348	0.796913	100.000000
2433.000000	14.288767	0.786382	100.000000
2434.000000	14.295179	0.801604	100.000000
2435.000000	14.301575	0.792852	100.000000
2436.000000	14.307953	0.807859	100.000000
2437.000000	14.314281	0.809213	100.000000
2438.000000	14.320547	0.803784	100.000000
2439.000000	14.326768	0.810503	100.000000
2440.000000	14.332956	0.818531	100.000000
2441.000000	14.339110	0.811492	100.000000
2442.000000	14.345234	0.830019	100.000000
2443.000000	14.351346	0.824678	100.000000
2444.000000	14.357458	0.815721	100.000000
2445.000000	14.363562	0.808397	100.000000
2446.000000	14.369656	0.826929	100.000000
2447.000000	14.375744	0.821513	100.000000
2448.000000	14.381827	0.814434	100.000000
2449.000000	14.387923	0.837839	100.000000
2450.000000	14.394051	0.835753	100.000000
2451.000000	14.400224	0.842148	100.000000
2452.000000	14.406459	0.872351	100.000000
2453.000000	14.412752	0.853321	100.000000
2454.000000	14.419073	0.846109	100.000000
2455.000000	14.425401	0.866306	100.000000
2456.000000	14.431739	0.848570	100.000000
2457.000000	14.438089	0.872479	100.000000
2458.000000	14.444447	0.863317	100.000000
2459.000000	14.450805	0.869954	100.000000
2460.000000	14.457146	0.864508	100.000000
2461.000000	14.463460	0.874450	100.000000
2462.000000	14.469733	0.865480	100.000000
2463.000000	14.475950	0.875291	100.000000
2464.000000	14.482116	0.883751	100.000000
2465.000000	14.488238	0.871351	100.000000
2466.000000	14.494314	0.884613	100.000000
2467.000000	14.500334	0.891516	100.000000
2468.000000	14.506280	0.897977	100.000000
2469.000000	14.512150	0.894096	100.000000
2470.000000	14.517956	0.883571	100.000000
2471.000000	14.523704	0.897132	100.000000
2472.000000	14.529392	0.886412	100.000000
2473.000000	14.535017	0.875804	100.000000
2474.000000	14.540583	0.899575	100.000000
2475.000000	14.546092	0.895903	100.000000
2476.000000	14.551542	0.887137	100.000000
2477.000000	14.556922	0.880213	100.000000
2478.000000	14.562222	0.903873	100.000000
2479.000000	14.567433	0.891490	100.000000
2480.000000	14.572557	0.880934	100.000000
2481.000000	14.577577	0.894285	100.000000
2482.000000	14.582459	0.880540	100.000000
2483.000000	14.587213	0.902577	100.000000
2484.000000	14.591842	0.893762	100.000000
2485.000000	14.596305	0.895240	100.000000
2486.000000	14.600586	0.886817	100.000000
2487.000000	14.604686	0.896721	100.000000
2488.000000	14.608595	0.889696	100.000000
2489.000000	14.612314	0.908345	100.000000
2490.000000	14.615860	0.891014	100.000000
2491.000000	14.619235	0.891260	100.000000
2492.000000	14.622437	0.889384	100.000000
2493.000000	14.625479	0.870428	100.000000
2494.000000	14.628375	0.873819	100.000000
2495.000000	14.631127	0.871995	100.000000
2496.000000	14.633732	0.878648	100.000000
2497.000000	14.636184	0.876871	100.000000
2498.000000	14.638482	0.869825	100.000000
2499.000000	14.640641	0.864828	100.000000
2500.000000	14.642660	0.859481	100.000000
2501.000000	14.644543	0.864825	100.000000
2502.000000	14.646291	0.857559	100.000000
2503.000000	14.647888	0.847350	100.000000
2504.000000	14.649326	0.841765	100.000000
2505.000000	14.650597	0.861005	100.000000
2506.000000	14.651688	0.848757	100.000000
2507.000000	14.652579	0.826701	100.000000
2508.000000	14.653259	0.850585	100.000000
2509.000000	14.653721	0.831734	100.000000
2510.000000	14.653965	0.836884	100.000000
2511.000000	14.654016	0.821607	100.000000
2512.000000	14.653903	0.840525	100.000000
2513.000000	14.653641	0.839179	100.000000
2514.000000	14.653244	0.811550	100.000000
2515.000000	14.652720	0.808117	100.000000
2516.000000	14.652076	0.790667	100.000000
2517.000000	14.651299	0.808249	100.000000
2518.000000	14.650385	0.803026	100.000000
2519.000000	14.649342	0.789328	100.000000
2520.000000	14.648183	0.792976	100.000000
2521.000000	14.646919	0.774274	100.000000
2522.000000	14.645540	0.784559	100.000000
2523.000000	14.644032	0.776241	100.000000
2524.000000	14.642397	0.774585	100.000000
2525.000000	14.640636	0.779481	100.000000
2526.000000	14.638762	0.771280	100.000000
2527.000000	14.636788	0.759605	100.000000
2528.000000	14.634709	0.738803	100.000000
2529.000000	14.632514	0.746032	100.000000
2530.000000	14.630185	0.741106	100.000000
2531.000000	14.627706	0.754470	100.000000
2532.000000	14.625074	0.727339	100.000000
2533.000000	14.622282	0.729356	100.000000
2534.000000	14.619331	0.726106	100.000000
2535.000000	14.616228	0.729639	100.000000
2536.000000	14.612973	0.721458	100.000000
2537.000000	14.609564	0.692572	100.000000
2538.000000	14.606003	0.696187	100.000000
2539.000000	14.602293	0.696343	100.000000
2540.000000	14.598440	0.693225	100.000000
2541.000000	14.594452	0.683172	100.000000
2542.000000	14.590332	0.667879	100.000000
2543.000000	14.586081	0.652899	100.000000
2544.000000	14.581716	0.634243	100.000000
2545.000000	14.577256	0.644506	100.000000
2546.000000	14.572703	0.646178	100.000000
2547.000000	14.568026	0.640109	100.000000
2548.000000	14.563204	0.612306	100.000000
2549.000000	14.558229	0.621462	100.000000
2550.000000	14.553081	0.620088	100.000000
2551.000000	14.547745	0.603252	100.000000
2552.000000	14.542212	0.598522	100.000000
2553.000000	14.536478	0.583637	100.000000
2554.000000	14.530535	0.568485	100.000000
2555.000000	14.524383	0.563665	100.000000
2556.000000	14.518020	0.574455	100.000000
2557.000000	14.511448	0.550693	100.000000
2558.000000	14.504679	0.537230	100.000000
2559.000000	14.497753	0.530501	100.000000
2560.000000	14.490712	0.515428	100.000000
2561.000000	14.483597	0.515641	100.000000
2562.000000	14.476452	0.505527	100.000000
2563.000000	14.469305	0.505984	100.000000
2564.000000	14.462164	0.475256	100.000000
2565.000000	14.455029	0.496063	100.000000
2566.000000	14.447897	0.486273	100.000000
2567.000000	14.440778	0.475827	100.000000
2568.000000	14.433672	0.478135	100.000000
2569.000000	14.426527	0.454334	100.000000
2570.000000	14.419306	0.454956	100.000000
2571.000000	14.412036	0.444813	100.000000
2572.000000	14.404747	0.453881	100.000000
2573.000000	14.397442	0.450539	100.000000
2574.000000	14.390147	0.430242	100.000000
2575.000000	14.382899	0.430485	100.000000
2576.000000	14.375702	0.424080	100.000000
2577.000000	14.368545	0.400440	100.000000
2578.000000	14.361424	0.407507	100.000000
2579.000000	14.354333	0.389108	100.000000
2580.000000	14.347282	0.370474	100.000000
2581.000000	14.340296	0.382646	100.000000
2582.000000	14.333408	0.386471	100.000000
2583.000000	14.326636	0.362696	100.000000
2584.000000	14.320001	0.366429	100.000000
2585.000000	14.313533	0.358023	100.000000
2586.000000	14.307231	0.347964	100.000000
2587.000000	14.301082	0.351527	100.000000
2588.000000	14.295092	0.341411	100.000000
2589.000000	14.289248	0.322679	100.000000
2590.000000	14.283535	0.326463	100.000000
2591.000000	14.277942	0.302874	100.000000
2592.000000	14.272467	0.314900	100.000000
2593.000000	14.267103	0.296289	100.000000
2594.000000	14.261832	0.298347	100.000000
2595.000000	14.256658	0.283541	100.000000
2596.000000	14.251587	0.287006	100.000000
2597.000000	14.246610	0.277007	100.000000
2598.000000	14.241719	0.275656	100.000000
2599.000000	14.236915	0.265532	100.000000
2600.000000	14.232193	0.250323	100.000000
2601.000000	14.227526	0.241985	100.000000
2602.000000	14.222890	0.252488	100.000000
2603.000000	14.218289	0.233890	100.000000
2604.000000	14.213735	0.225526	100.000000
2605.000000	14.209218	0.235820	100.000000
2606.000000	14.204731	0.213967	100.000000
2607.000000	14.200280	0.212591	100.000000
2608.000000	14.195853	0.206019	100.000000
2609.000000	14.191424	0.199116	100.000000
2610.000000	14.186974	0.192557	100.000000
2611.000000	14.182492	0.190882	100.000000
2612.000000	14.177966	0.179442	100.000000
2613.000000	14.173383	0.177786	100.000000
2614.000000	14.168726	0.157796	100.000000
2615.000000	14.163975	0.171461	100.000000
2616.000000	14.159119	0.166680	100.000000
2617.000000	14.154171	0.155248	100.000000
2618.000000	14.149135	0.132996	100.000000
2619.000000	14.143999	0.150555	100.000000
2620.000000	14.138761	0.145618	100.000000
2621.000000	14.133428	0.107972	100.000000
2622.000000	14.128006	0.128735	100.000000
2623.000000	14.122516	0.112067	100.000000
2624.000000	14.116978	0.096693	100.000000
2625.000000	14.111390	0.088176	100.000000
2626.000000	14.105749	0.093432	100.000000
2627.000000	14.100072	0.079939	100.000000
2628.000000	14.094385	0.072904	100.000000
2629.000000	14.088705	0.073377	100.000000
2630.000000	14.083028	0.073244	100.000000
2631.000000	14.077344	0.066602	100.000000
2632.000000	14.071632	0.059640	100.000000
2633.000000	14.065892	0.047903	100.000000
2634.000000	14.060155	0.047846	100.000000
2635.000000	14.054452	0.041203	100.000000
2636.000000	14.048797	0.042702	100.000000
2637.000000	14.043209	0.029195	100.000000
2638.000000	14.037717	0.050026	100.000000
2639.000000	14.032353	0.046340	100.000000
2640.000000	14.027134	0.048058	100.000000
2641.000000	14.022078	0.042864	100.000000
2642.000000	14.017214	0.053197	100.000000
2643.000000	14.012571	0.034338	100.000000
2644.000000	14.008167	0.035986	100.000000
2645.000000	14.004015	0.029133	100.000000
2646.000000	14.000116	0.022379	100.000000
2647.000000	13.996465	0.020759	100.000000
2648.000000	13.993067	0.030902	100.000000
2649.000000	13.989934	0.028884	100.000000
2650.000000	13.987061	0.020435	100.000000
2651.000000	13.984430	0.027008	100.000000
2652.000000	13.982026	0.025502	100.000000
2653.000000	13.979833	0.033642	100.000000
2654.000000	13.977828	0.025593	100.000000
2655.000000	13.976009	0.040569	100.000000
2656.000000	13.974376	0.032333	100.000000
2657.000000	13.972917	0.018510	100.000000
2658.000000	13.971614	0.032314	100.000000
2659.000000	13.970455	0.030786	100.000000
2660.000000	13.969440	0.018470	100.000000
2661.000000	13.968554	0.042669	100.000000
2662.000000	13.967791	0.028640	100.000000
2663.000000	13.967168	0.022147	100.000000
2664.000000	13.966687	0.025355	100.000000
2665.000000	13.966342	0.013306	100.000000
2666.000000	13.966123	0.021835	100.000000
2667.000000	13.966017	0.014976	100.000000
2668.000000	13.966015	0.020303	100.000000
2669.000000	13.966100	0.026575	100.000000
2670.000000	13.966249	0.023127	100.000000
2671.000000	13.966443	0.026580	100.000000
2672.000000	13.966675	0.024932	100.000000
2673.000000	13.966952	0.023261	100.000000
2674.000000	13.967274	0.024619	100.000000
2675.000000	13.967629	0.022908	100.000000
2676.000000	13.968003	0.026233	100.000000
2677.000000	13.968384	0.036548	100.000000
2678.000000	13.968772	0.031475	100.000000
2679.000000	13.969186	0.037895	100.000000
2680.000000	13.969642	0.034677	100.000000
2681.000000	13.970163	0.034478	100.000000
2682.000000	13.970773	0.037710	100.000000
2683.000000	13.971487	0.027484	100.000000
2684.000000	13.972325	0.032065	100.000000
2685.000000	13.973307	0.044149	100.000000
2686.000000	13.974453	0.060872	100.000000
2687.000000	13.975772	0.048466	100.000000
2688.000000	13.977264	0.052064	100.000000
2689.000000	13.978938	0.051660	100.000000
2690.000000	13.980807	0.042983	100.000000
2691.000000	13.982855	0.078545	100.000000
2692.000000	13.985064	0.064994	100.000000
2693.000000	13.987435	0.067923	100.000000
2694.000000	13.989961	0.074727	100.000000
2695.000000	13.992633	0.067379	100.000000
2696.000000	13.995454	0.084474	100.000000
2697.000000	13.998423	0.099528	100.000000
2698.000000	14.001549	0.089206	100.000000
2699.000000	14.004859	0.094119	100.000000
2700.000000	14.008366	0.083435	100.000000
2701.000000	14.012062	0.091807	100.000000
2702.000000	14.015929	0.089839	100.000000
2703.000000	14.019951	0.120437	100.000000
2704.000000	14.024124	0.091060	100.000000
2705.000000	14.028438	0.107819	100.000000
2706.000000	14.032896	0.111141	100.000000
2707.000000	14.037513	0.114289	100.000000
2708.000000	14.042287	0.129344	100.000000
2709.000000	14.047202	0.136094	100.000000
2710.000000	14.052257	0.139103	100.000000
2711.000000	14.057430	0.142469	100.000000
2712.000000	14.062682	0.133598	100.000000
2713.000000	14.067989	0.143434	100.000000
2714.000000	14.073339	0.145156	100.000000
2715.000000	14.078724	0.162361	100.000000
2716.000000	14.084125	0.149870	100.000000
2717.000000	14.089526	0.154975	100.000000
2718.000000	14.094911	0.166843	100.000000
2719.000000	14.100262	0.153089	100.000000
2720.000000	14.105572	0.157873	100.000000
2721.000000	14.110845	0.166453	100.000000
2722.000000	14.116076	0.173252	100.000000
2723.000000	14.121246	0.160727	100.000000
2724.000000	14.126346	0.179832	100.000000
2725.000000	14.131394	0.165939	100.000000
2726.000000	14.136390	0.169234	100.000000
2727.000000	14.141325	0.194781	100.000000
2728.000000	14.146228	0.177342	100.000000
2729.000000	14.151097	0.192760	100.000000
2730.000000	14.155914	0.194285	100.000000
2731.000000	14.160671	0.175171	100.000000
2732.000000	14.165353	0.195656	100.000000
2733.000000	14.169964	0.207334	100.000000
2734.000000	14.174531	0.183313	100.000000
2735.000000	14.179067	0.193207	100.000000
2736.000000	14.183556	0.193288	100.000000
2737.000000	14.187991	0.197838	100.000000
2738.000000	14.192396	0.213249	100.000000
2739.000000	14.196781	0.223260	100.000000
2740.000000	14.201125	0.204375	100.000000
2741.000000	14.205443	0.221255	100.000000
2742.000000	14.209760	0.212528	100.000000
2743.000000	14.214077	0.212294	100.000000
2744.000000	14.218397	0.205120	100.000000
2745.000000	14.222714	0.251584	100.000000
2746.000000	14.227030	0.217013	100.000000
2747.000000	14.231371	0.230636	100.000000
2748.000000	14.235755	0.231965	100.000000
2749.000000	14.240186	0.226809	100.000000
2750.000000	14.244665	0.236736	100.000000
2751.000000	14.249194	0.227963	100.000000
2752.000000	14.253795	0.222439	100.000000
2753.000000	14.258485	0.226060	100.000000
2754.000000	14.263264	0.247806	100.000000
2755.000000	14.268112	0.244136	100.000000
2756.000000	14.273005	0.242173	100.000000
2757.000000	14.277924	0.242103	100.000000
2758.000000	14.282860	0.241955	100.000000
2759.000000	14.287816	0.252072	100.000000
2760.000000	14.292789	0.243116	100.000000
2761.000000	14.297749	0.243039	100.000000
2762.000000	14.302668	0.247820	100.000000
2763.000000	14.307543	0.277009	100.000000
2764.000000	14.312382	0.256275	100.000000
2765.000000	14.317193	0.255983	100.000000
2766.000000	14.321979	0.252831	100.000000
2767.000000	14.326749	0.257679	100.000000
2768.000000	14.331487	0.266169	100.000000
2769.000000	14.336170	0.254115	100.000000
2770.000000	14.340785	0.248971	100.000000
2771.000000	14.345310	0.255617	100.000000
2772.000000	14.349731	0.243635	100.000000
2773.000000	14.354040	0.253904	100.000000
2774.000000	14.358220	0.264051	100.000000
2775.000000	14.362274	0.253505	100.000000
2776.000000	14.366207	0.257178	100.000000
2777.000000	14.370005	0.229621	100.000000
2778.000000	14.373647	0.251886	100.000000
2779.000000	14.377095	0.258590	100.000000
2780.000000	14.380314	0.263852	100.000000
2781.000000	14.383311	0.244695	100.000000
2782.000000	14.386104	0.245014	100.000000
2783.000000	14.388688	0.260512	100.000000
2784.000000	14.391053	0.241758	100.000000
2785.000000	14.393192	0.255770	100.000000
2786.000000	14.395102	0.231687	100.000000
2787.000000	14.396781	0.252084	100.000000
2788.000000	14.398232	0.245450	100.000000
2789.000000	14.399460	0.242009	100.000000
2790.000000	14.400467	0.247356	100.000000
2791.000000	14.401265	0.231955	100.000000
2792.000000	14.401876	0.247562	100.000000
2793.000000	14.402302	0.215060	100.000000
2794.000000	14.402539	0.218622	100.000000
2795.000000	14.402595	0.220573	100.000000
2796.000000	14.402475	0.216874	100.000000
2797.000000	14.402183	0.225856	100.000000
2798.000000	14.401731	0.215624	100.000000
2799.000000	14.401123	0.212236	100.000000
2800.000000	14.400340	0.212486	100.000000
2801.000000	14.399371	0.211048	100.000000
2802.000000	14.398224	0.190496	100.000000
2803.000000	14.396902	0.190696	100.000000
2804.000000	14.395378	0.202834	100.000000
2805.000000	14.393634	0.187486	100.000000
2806.000000	14.391673	0.182504	100.000000
2807.000000	14.389509	0.186364	100.000000
2808.000000	14.387156	0.174287	100.000000
2809.000000	14.384605	0.171306	100.000000
2810.000000	14.381841	0.181623	100.000000
2811.000000	14.378858	0.194004	100.000000
2812.000000	14.375663	0.173422	100.000000
2813.000000	14.372272	0.152967	100.000000
2814.000000	14.368694	0.160468	100.000000
2815.000000	14.364933	0.150123	100.000000
2816.000000	14.360986	0.153909	100.000000
