0.000000	0.551154	-0.017137	100.000000
1.000000	0.547607	-0.008471	100.000000
2.000000	0.540196	-0.006773	100.000000
3.000000	0.529461	-0.015352	100.000000
4.000000	0.515890	-0.012063	100.000000
5.000000	0.499937	-0.013888	100.000000
6.000000	0.482012	-0.017200	100.000000
7.000000	0.462492	-0.035974	100.000000
8.000000	0.441706	-0.025855	100.000000
9.000000	0.419954	-0.017139	100.000000
10.000000	0.397546	-0.025707	100.000000
11.000000	0.374752	-0.020632	100.000000
12.000000	0.351804	-0.015430	100.000000
13.000000	0.328900	0.013624	100.000000
14.000000	0.306204	-0.010433	100.000000
15.000000	0.283875	-0.010139	100.000000
16.000000	0.262056	-0.027401	100.000000
17.000000	0.240858	-0.015835	100.000000
18.000000	0.220366	-0.008717	100.000000
19.000000	0.200663	-0.022334	100.000000
20.000000	0.181825	-0.022482	100.000000
21.000000	0.163906	-0.017226	100.000000
22.000000	0.146937	-0.025745	100.000000
23.000000	0.130942	-0.017295	100.000000
24.000000	0.115931	-0.013858	100.000000
25.000000	0.101902	-0.020734	100.000000
26.000000	0.088844	-0.024279	100.000000
27.000000	0.076738	-0.008630	100.000000
28.000000	0.065561	-0.005439	100.000000
29.000000	0.055299	-0.018904	100.000000
30.000000	0.045934	-0.012057	100.000000
31.000000	0.037420	-0.029232	100.000000
32.000000	0.029705	-0.003730	100.000000
33.000000	0.022760	-0.014076	100.000000
34.000000	0.016552	-0.015482	100.000000
35.000000	0.011041	-0.010544	100.000000
36.000000	0.006194	-0.015761	100.000000
37.000000	0.001967	-0.020907	100.000000
38.000000	-0.001691	-0.010420	100.000000
39.000000	-0.004819	-0.029243	100.000000
40.000000	-0.007451	-0.026012	100.000000
41.000000	-0.009627	-0.014002	100.000000
42.000000	-0.011398	-0.015737	100.000000
43.000000	-0.012809	-0.022699	100.000000
44.000000	-0.013893	-0.015632	100.000000
45.000000	-0.014677	-0.022500	100.000000
46.000000	-0.015169	-0.002222	100.000000
47.000000	-0.015397	-0.015801	100.000000
48.000000	-0.015406	-0.014168	100.000000
49.000000	-0.015240	-0.015810	100.000000
50.000000	-0.014927	-0.019500	100.000000
51.000000	-0.014483	-0.036066	100.000000
52.000000	-0.013927	0.006425	100.000000
53.000000	-0.013270	-0.019093	100.000000
54.000000	-0.012511	-0.014070	100.000000
55.000000	-0.011670	-0.002359	100.000000
56.000000	-0.010786	-0.021242	100.000000
57.000000	-0.009874	-0.031256	100.000000
58.000000	-0.008941	-0.017608	100.000000
59.000000	-0.007994	-0.012200	100.000000
60.000000	-0.007038	-0.009159	100.000000
61.000000	-0.006073	-0.019297	100.000000
62.000000	-0.005101	-0.003944	100.000000
63.000000	-0.004149	-0.014140	100.000000
64.000000	-0.003237	-0.009119	100.000000
65.000000	-0.002364	-0.022563	100.000000
66.000000	-0.001542	-0.005465	100.000000
67.000000	-0.000765	-0.024154	100.000000
68.000000	-1.679651E-5	-0.019356	100.000000
69.000000	0.000697	-0.019440	100.000000
70.000000	0.001363	-0.015854	100.000000
71.000000	0.001963	-0.017708	100.000000
72.000000	0.002491	-0.002234	100.000000
73.000000	0.002957	-0.013982	100.000000
74.000000	0.003366	0.003010	100.000000
75.000000	0.003728	-0.022636	100.000000
76.000000	0.004052	-0.007145	100.000000
77.000000	0.004343	-0.008849	100.000000
78.000000	0.004597	-0.008885	100.000000
79.000000	0.004811	0.001321	100.000000
80.000000	0.004994	-0.009108	100.000000
81.000000	0.005159	-0.017612	100.000000
82.000000	0.005302	-0.002184	100.000000
83.000000	0.005417	-0.012406	100.000000
84.000000	0.005508	-0.017667	100.000000
85.000000	0.005578	-0.019234	100.000000
86.000000	0.005634	-0.000203	100.000000
87.000000	0.005680	-0.007024	100.000000
88.000000	0.005704	0.004915	100.000000
89.000000	0.005695	-0.004044	100.000000
90.000000	0.005649	-0.017351	100.000000
91.000000	0.005576	-0.003838	100.000000
92.000000	0.005499	-0.010677	100.000000
93.000000	0.005432	-0.009008	100.000000
94.000000	0.005372	0.006627	100.000000
95.000000	0.005312	-0.007172	100.000000
96.000000	0.005264	-0.007084	100.000000
97.000000	0.005230	-0.025990	100.000000
98.000000	0.005209	-0.003537	100.000000
99.000000	0.005204	-0.020910	100.000000
100.000000	0.005210	-0.013853	100.000000
101.000000	0.005209	-0.003623	100.000000
102.000000	0.005208	-0.010512	100.000000
103.000000	0.005226	-0.017530	100.000000
104.000000	0.005253	-0.019110	100.000000
105.000000	0.005265	-0.005606	100.000000
106.000000	0.005253	-0.007328	100.000000
107.000000	0.005221	-0.022447	100.000000
108.000000	0.005172	-0.022379	100.000000
109.000000	0.005107	-0.015768	100.000000
110.000000	0.005038	-0.017027	100.000000
111.000000	0.004981	-0.019246	100.000000
112.000000	0.004936	-0.013946	100.000000
113.000000	0.004906	-0.022444	100.000000
114.000000	0.004901	-0.017561	100.000000
115.000000	0.004919	-0.019064	100.000000
116.000000	0.004954	-0.008833	100.000000
117.000000	0.005013	-0.013933	100.000000
118.000000	0.005104	-0.013870	100.000000
119.000000	0.005224	-0.015673	100.000000
120.000000	0.005361	-0.012264	100.000000
121.000000	0.005505	-0.002185	100.000000
122.000000	0.005646	-0.000250	100.000000
123.000000	0.005773	-0.006983	100.000000
124.000000	0.005892	-0.015686	100.000000
125.000000	0.006009	-0.022569	100.000000
126.000000	0.006120	-0.010664	100.000000
127.000000	0.006220	-0.013905	100.000000
128.000000	0.006312	-0.007135	100.000000
129.000000	0.006400	-0.019142	100.000000
130.000000	0.006476	-0.010382	100.000000
131.000000	0.006538	-0.013898	100.000000
132.000000	0.006587	-0.019234	100.000000
133.000000	0.006624	-0.022658	100.000000
134.000000	0.006639	-0.020596	100.000000
135.000000	0.006630	-0.020777	100.000000
136.000000	0.006614	-0.022493	100.000000
137.000000	0.006598	-0.003587	100.000000
138.000000	0.006577	0.006633	100.000000
139.000000	0.006554	-0.031220	100.000000
140.000000	0.006531	-0.014076	100.000000
141.000000	0.006504	-0.008802	100.000000
142.000000	0.006479	-0.014107	100.000000
143.000000	0.006476	-0.020880	100.000000
144.000000	0.006504	-0.019121	100.000000
145.000000	0.006550	-0.000207	100.000000
146.000000	0.006597	-0.015701	100.000000
147.000000	0.006645	-0.027720	100.000000
148.000000	0.006704	-0.027863	100.000000
149.000000	0.006771	-0.015650	100.000000
150.000000	0.006841	-0.003891	100.000000
151.000000	0.006923	-0.010824	100.000000
152.000000	0.007024	-0.008828	100.000000
153.000000	0.007135	-0.008944	100.000000
154.000000	0.007237	-0.022761	100.000000
155.000000	0.007331	-0.009052	100.000000
156.000000	0.007432	-0.017473	100.000000
157.000000	0.007547	-0.021051	100.000000
158.000000	0.007680	-0.017491	100.000000
159.000000	0.007826	-0.020971	100.000000
160.000000	0.007974	-0.019396	100.000000
161.000000	0.008119	-0.015919	100.000000
162.000000	0.008253	-0.024423	100.000000
163.000000	0.008378	-0.019221	100.000000
164.000000	0.008508	-0.025988	100.000000
165.000000	0.008641	-0.015735	100.000000
166.000000	0.008762	-0.024203	100.000000
167.000000	0.008869	-0.025860	100.000000
168.000000	0.008969	-0.017034	100.000000
169.000000	0.009066	-0.024326	100.000000
170.000000	0.009166	-0.029512	100.000000
171.000000	0.009269	-0.022785	100.000000
172.000000	0.009372	-0.003741	100.000000
173.000000	0.009472	-0.019248	100.000000
174.000000	0.009563	-0.017599	100.000000
175.000000	0.009643	-0.026174	100.000000
176.000000	0.009721	-0.012341	100.000000
177.000000	0.009793	-0.008942	100.000000
178.000000	0.009854	-0.014317	100.000000
179.000000	0.009912	-0.022565	100.000000
180.000000	0.009983	-0.027757	100.000000
181.000000	0.010051	-0.021035	100.000000
182.000000	0.010101	-0.025993	100.000000
183.000000	0.010141	0.003020	100.000000
184.000000	0.010173	-0.014120	100.000000
185.000000	0.010193	-0.007086	100.000000
186.000000	0.010198	-0.034707	100.000000
187.000000	0.010188	-0.008970	100.000000
188.000000	0.010166	-0.010858	100.000000
189.000000	0.010138	-0.021066	100.000000
190.000000	0.010104	-0.017565	100.000000
191.000000	0.010071	-0.026013	100.000000
192.000000	0.010058	-0.024345	100.000000
193.000000	0.010063	-0.008744	100.000000
194.000000	0.010071	-0.026050	100.000000
195.000000	0.010092	-0.022541	100.000000
196.000000	0.010129	-0.032842	100.000000
197.000000	0.010171	-0.007360	100.000000
198.000000	0.010205	-0.007242	100.000000
199.000000	0.010216	-0.014209	100.000000
200.000000	0.010205	-0.001928	100.000000
201.000000	0.010184	-0.019124	100.000000
202.000000	0.010157	-0.024328	100.000000
203.000000	0.010118	-0.008823	100.000000
204.000000	0.010077	-0.022588	100.000000
205.000000	0.010049	-0.008798	100.000000
206.000000	0.010022	-0.012398	100.000000
207.000000	0.009987	-0.005448	100.000000
208.000000	0.009952	-0.034614	100.000000
209.000000	0.009928	-0.010598	100.000000
210.000000	0.009925	-0.041130	100.000000
211.000000	0.009938	-0.012410	100.000000
212.000000	0.009958	-0.008804	100.000000
213.000000	0.009981	-0.002208	100.000000
214.000000	0.009992	-0.014028	100.000000
215.000000	0.009987	-0.026203	100.000000
216.000000	0.009976	-0.027864	100.000000
217.000000	0.009962	-0.007203	100.000000
218.000000	0.009954	-0.024287	100.000000
219.000000	0.009951	-0.024532	100.000000
220.000000	0.009935	-0.003687	100.000000
221.000000	0.009907	-0.032996	100.000000
222.000000	0.009879	-0.010566	100.000000
223.000000	0.009854	-0.021022	100.000000
224.000000	0.009847	-0.008925	100.000000
225.000000	0.009866	-0.017537	100.000000
226.000000	0.009893	-0.024340	100.000000
227.000000	0.009914	-0.043029	100.000000
228.000000	0.009927	-0.012398	100.000000
229.000000	0.009932	-0.024498	100.000000
230.000000	0.009935	-0.020965	100.000000
231.000000	0.009936	-0.022679	100.000000
232.000000	0.009932	-0.015869	100.000000
233.000000	0.009919	-0.005717	100.000000
234.000000	0.009904	-0.014199	100.000000
235.000000	0.009896	-0.007412	100.000000
236.000000	0.009882	-0.008973	100.000000
237.000000	0.009853	-0.033080	100.000000
238.000000	0.009813	-0.000287	100.000000
239.000000	0.009762	-0.024646	100.000000
240.000000	0.009702	-0.014154	100.000000
241.000000	0.009637	-0.016074	100.000000
242.000000	0.009575	-0.027716	100.000000
243.000000	0.009526	-0.009181	100.000000
244.000000	0.009478	-0.007275	100.000000
245.000000	0.009424	-0.031365	100.000000
246.000000	0.009373	-0.020936	100.000000
247.000000	0.009326	-0.026315	100.000000
248.000000	0.009287	-0.020961	100.000000
249.000000	0.009257	-0.024569	100.000000
250.000000	0.009226	-0.015884	100.000000
251.000000	0.009181	-0.016084	100.000000
252.000000	0.009114	-0.009161	100.000000
253.000000	0.009019	-0.005814	100.000000
254.000000	0.008896	-0.008951	100.000000
255.000000	0.008747	-0.014105	100.000000
256.000000	0.008587	-0.008981	100.000000
257.000000	0.008432	-0.015959	100.000000
258.000000	0.008284	-0.031279	100.000000
259.000000	0.008142	-0.012878	100.000000
260.000000	0.007996	-0.014503	100.000000
261.000000	0.007857	-0.012537	100.000000
262.000000	0.007743	-0.022749	100.000000
263.000000	0.007633	-0.010863	100.000000
264.000000	0.007521	-0.003958	100.000000
265.000000	0.007427	-0.031265	100.000000
266.000000	0.007346	-0.002112	100.000000
267.000000	0.007269	-0.015950	100.000000
268.000000	0.007199	-0.005782	100.000000
269.000000	0.007131	-0.012547	100.000000
270.000000	0.007053	-0.005678	100.000000
271.000000	0.006968	0.006091	100.000000
272.000000	0.006876	-0.021076	100.000000
273.000000	0.006776	0.009645	100.000000
274.000000	0.006675	-0.010796	100.000000
275.000000	0.006582	-0.016090	100.000000
276.000000	0.006509	-0.010610	100.000000
277.000000	0.006468	-0.010867	100.000000
278.000000	0.006453	-0.012584	100.000000
279.000000	0.006454	-0.016078	100.000000
280.000000	0.006477	-0.021032	100.000000
281.000000	0.006522	-0.017805	100.000000
282.000000	0.006580	-0.009096	100.000000
283.000000	0.006648	-0.014248	100.000000
284.000000	0.006714	-0.010869	100.000000
285.000000	0.006776	-0.017744	100.000000
286.000000	0.006843	-0.026227	100.000000
287.000000	0.006907	-0.009251	100.000000
288.000000	0.006954	-0.015924	100.000000
289.000000	0.006999	-0.021252	100.000000
290.000000	0.007051	-0.012575	100.000000
291.000000	0.007091	0.003018	100.000000
292.000000	0.007107	-0.007326	100.000000
293.000000	0.007102	0.002784	100.000000
294.000000	0.007085	-0.019307	100.000000
295.000000	0.007060	-0.012370	100.000000
296.000000	0.007028	-0.024563	100.000000
297.000000	0.006993	-0.010901	100.000000
298.000000	0.006953	0.004659	100.000000
299.000000	0.006906	0.004633	100.000000
300.000000	0.006852	0.002758	100.000000
301.000000	0.006785	-0.007371	100.000000
302.000000	0.006710	-0.007301	100.000000
303.000000	0.006644	0.001548	100.000000
304.000000	0.006588	-0.016050	100.000000
305.000000	0.006538	-0.007341	100.000000
306.000000	0.006500	-0.021221	100.000000
307.000000	0.006472	-0.007278	100.000000
308.000000	0.006435	-0.005755	100.000000
309.000000	0.006378	-0.008833	100.000000
310.000000	0.006301	-0.005629	100.000000
311.000000	0.006209	-0.002026	100.000000
312.000000	0.006108	-0.002141	100.000000
313.000000	0.006009	-0.010660	100.000000
314.000000	0.005923	-0.015692	100.000000
315.000000	0.005858	-0.000275	100.000000
316.000000	0.005805	-0.005593	100.000000
317.000000	0.005743	-0.009000	100.000000
318.000000	0.005663	-0.009087	100.000000
319.000000	0.005591	-0.017781	100.000000
320.000000	0.005549	-0.002305	100.000000
321.000000	0.005555	-0.017543	100.000000
322.000000	0.005598	-0.010840	100.000000
323.000000	0.005647	-0.000451	100.000000
324.000000	0.005688	0.006376	100.000000
325.000000	0.005726	-0.017651	100.000000
326.000000	0.005762	-0.024455	100.000000
327.000000	0.005793	-0.009142	100.000000
328.000000	0.005820	-0.014162	100.000000
329.000000	0.005851	-0.000311	100.000000
330.000000	0.005880	-0.014402	100.000000
331.000000	0.005918	-0.007170	100.000000
332.000000	0.005979	-0.009166	100.000000
333.000000	0.006065	-0.019445	100.000000
334.000000	0.006181	-0.009011	100.000000
335.000000	0.006323	-0.000531	100.000000
336.000000	0.006477	-0.005843	100.000000
337.000000	0.006632	-0.007321	100.000000
338.000000	0.006780	-0.026337	100.000000
339.000000	0.006919	-0.002199	100.000000
340.000000	0.007057	0.004377	100.000000
341.000000	0.007196	-0.014387	100.000000
342.000000	0.007331	-0.015952	100.000000
343.000000	0.007461	-0.019386	100.000000
344.000000	0.007595	-0.007462	100.000000
345.000000	0.007731	-0.005881	100.000000
346.000000	0.007867	-0.016057	100.000000
347.000000	0.008011	-0.026260	100.000000
348.000000	0.008170	-0.010957	100.000000
349.000000	0.008340	-0.016077	100.000000
350.000000	0.008526	-0.009124	100.000000
351.000000	0.008716	-0.000540	100.000000
352.000000	0.008894	-0.002413	100.000000
353.000000	0.009064	-0.004144	100.000000
354.000000	0.009229	-0.012596	100.000000
355.000000	0.009405	-0.019558	100.000000
356.000000	0.009602	-0.012540	100.000000
357.000000	0.009823	-0.009143	100.000000
358.000000	0.010049	-0.012674	100.000000
359.000000	0.010273	-0.010788	100.000000
360.000000	0.010500	-0.019393	100.000000
361.000000	0.010722	-0.004106	100.000000
362.000000	0.010930	-0.027838	100.000000
363.000000	0.011111	0.009384	100.000000
364.000000	0.011263	-0.017901	100.000000
365.000000	0.011394	-0.007406	100.000000
366.000000	0.011508	-0.014607	100.000000
367.000000	0.011610	-0.019410	100.000000
368.000000	0.011702	-0.010980	100.000000
369.000000	0.011792	-0.012578	100.000000
370.000000	0.011884	-0.021286	100.000000
371.000000	0.011970	-0.005747	100.000000
372.000000	0.012040	-0.014468	100.000000
373.000000	0.012089	-0.021236	100.000000
374.000000	0.012109	-0.014526	100.000000
375.000000	0.012103	-0.002396	100.000000
376.000000	0.012075	-0.006026	100.000000
377.000000	0.012018	-0.002352	100.000000
378.000000	0.011933	-0.007711	100.000000
379.000000	0.011834	0.011105	100.000000
380.000000	0.011730	-0.034853	100.000000
381.000000	0.011633	-0.012804	100.000000
382.000000	0.011550	-0.006009	100.000000
383.000000	0.011491	-0.024768	100.000000
384.000000	0.011462	-0.028302	100.000000
385.000000	0.011466	-0.004297	100.000000
386.000000	0.011495	0.011202	100.000000
387.000000	0.011535	-0.007648	100.000000
388.000000	0.011587	-0.014523	100.000000
389.000000	0.011657	-0.011325	100.000000
390.000000	0.011734	-0.011226	100.000000
391.000000	0.011815	0.000750	100.000000
392.000000	0.011911	-0.012880	100.000000
393.000000	0.012022	0.000884	100.000000
394.000000	0.012142	-0.009319	100.000000
395.000000	0.012275	-0.018038	100.000000
396.000000	0.012422	-0.011208	100.000000
397.000000	0.012579	-0.012982	100.000000
398.000000	0.012729	0.000694	100.000000
399.000000	0.012850	-0.006011	100.000000
400.000000	0.012947	-0.009588	100.000000
401.000000	0.013036	-0.008087	100.000000
402.000000	0.013115	-0.004312	100.000000
403.000000	0.013179	0.005940	100.000000
404.000000	0.013239	0.007618	100.000000
405.000000	0.013294	0.005990	100.000000
406.000000	0.013329	-0.017982	100.000000
407.000000	0.013355	-0.007809	100.000000
408.000000	0.013384	-0.004457	100.000000
409.000000	0.013419	-0.011402	100.000000
410.000000	0.013455	-0.021480	100.000000
411.000000	0.013502	0.000745	100.000000
412.000000	0.013563	0.002345	100.000000
413.000000	0.013631	-0.016324	100.000000
414.000000	0.013708	-0.023274	100.000000
415.000000	0.013801	-0.007970	100.000000
416.000000	0.013907	-0.007805	100.000000
417.000000	0.014030	-0.016499	100.000000
418.000000	0.014170	-0.002714	100.000000
419.000000	0.014324	-0.011464	100.000000
420.000000	0.014491	-0.002951	100.000000
421.000000	0.014653	-0.004593	100.000000
422.000000	0.014798	-0.002683	100.000000
423.000000	0.014944	-0.018282	100.000000
424.000000	0.015104	-0.011298	100.000000
425.000000	0.015278	-0.001035	100.000000
426.000000	0.015464	-0.018039	100.000000
427.000000	0.015668	-0.001249	100.000000
428.000000	0.015885	-0.025183	100.000000
429.000000	0.016092	-0.007727	100.000000
430.000000	0.016280	-0.012717	100.000000
431.000000	0.016462	-0.014890	100.000000
432.000000	0.016638	-0.019970	100.000000
433.000000	0.016807	-0.016319	100.000000
434.000000	0.016967	-0.012934	100.000000
435.000000	0.017117	-0.021725	100.000000
436.000000	0.017257	-0.019989	100.000000
437.000000	0.017395	-0.014640	100.000000
438.000000	0.017536	-0.007998	100.000000
439.000000	0.017662	-0.014723	100.000000
440.000000	0.017775	-0.021626	100.000000
441.000000	0.017892	-0.002422	100.000000
442.000000	0.017990	-0.011400	100.000000
443.000000	0.018046	-0.014732	100.000000
444.000000	0.018076	-0.025150	100.000000
445.000000	0.018099	-0.006071	100.000000
446.000000	0.018116	-0.023356	100.000000
447.000000	0.018116	-0.002875	100.000000
448.000000	0.018101	-0.006425	100.000000
449.000000	0.018093	-0.018282	100.000000
450.000000	0.018096	-0.016776	100.000000
451.000000	0.018110	-0.006067	100.000000
452.000000	0.018141	-0.007951	100.000000
453.000000	0.018179	-0.013197	100.000000
454.000000	0.018210	-0.006265	100.000000
455.000000	0.018227	-0.004353	100.000000
456.000000	0.018229	-0.021503	100.000000
457.000000	0.018222	-0.021673	100.000000
458.000000	0.018212	-0.014984	100.000000
459.000000	0.018198	-0.018369	100.000000
460.000000	0.018180	-0.009786	100.000000
461.000000	0.018147	0.005838	100.000000
462.000000	0.018098	-0.023610	100.000000
463.000000	0.018043	-0.026885	100.000000
464.000000	0.017989	-0.021709	100.000000
465.000000	0.017940	-0.013261	100.000000
466.000000	0.017881	-0.018395	100.000000
467.000000	0.017810	-0.026734	100.000000
468.000000	0.017733	-0.004616	100.000000
469.000000	0.017651	-0.018256	100.000000
470.000000	0.017566	-0.012910	100.000000
471.000000	0.017483	-0.013123	100.000000
472.000000	0.017418	-0.024798	100.000000
473.000000	0.017389	-0.019733	100.000000
474.000000	0.017374	-0.008072	100.000000
475.000000	0.017350	-0.014834	100.000000
476.000000	0.017318	-0.002896	100.000000
477.000000	0.017271	-0.006315	100.000000
478.000000	0.017216	-0.021579	100.000000
479.000000	0.017169	0.000615	100.000000
480.000000	0.017126	-0.000896	100.000000
481.000000	0.017072	-0.027026	100.000000
482.000000	0.017000	-0.021679	100.000000
483.000000	0.016910	-0.018053	100.000000
484.000000	0.016806	0.005707	100.000000
485.000000	0.016692	-0.000857	100.000000
486.000000	0.016580	-0.006299	100.000000
487.000000	0.016470	-0.021637	100.000000
488.000000	0.016362	-0.021722	100.000000
489.000000	0.016254	-0.019949	100.000000
490.000000	0.016148	-0.018201	100.000000
491.000000	0.016056	-0.018090	100.000000
492.000000	0.015978	-0.004505	100.000000
493.000000	0.015920	-0.004353	100.000000
494.000000	0.015882	-0.011510	100.000000
495.000000	0.015836	-0.018065	100.000000
496.000000	0.015772	0.007420	100.000000
497.000000	0.015709	-0.016251	100.000000
498.000000	0.015655	-0.009668	100.000000
499.000000	0.015605	-0.018043	100.000000
500.000000	0.015553	-0.006264	100.000000
501.000000	0.015493	-0.018265	100.000000
502.000000	0.015424	-0.008131	100.000000
503.000000	0.015345	-0.014603	100.000000
504.000000	0.015257	-0.018338	100.000000
505.000000	0.015163	-0.009602	100.000000
506.000000	0.015060	0.007391	100.000000
507.000000	0.014941	-0.007779	100.000000
508.000000	0.014805	0.000740	100.000000
509.000000	0.014642	-0.007929	100.000000
510.000000	0.014450	0.010938	100.000000
511.000000	0.014235	-0.007864	100.000000
512.000000	0.014004	-0.009624	100.000000
513.000000	0.013784	-0.014654	100.000000
514.000000	0.013586	0.014461	100.000000
515.000000	0.013396	0.004310	100.000000
516.000000	0.013214	-0.020065	100.000000
517.000000	0.013042	-0.009409	100.000000
518.000000	0.012875	0.007420	100.000000
519.000000	0.012691	0.007509	100.000000
520.000000	0.012470	-0.018006	100.000000
521.000000	0.012236	-0.011422	100.000000
522.000000	0.012020	-0.030023	100.000000
523.000000	0.011829	-0.009539	100.000000
524.000000	0.011643	-0.001084	100.000000
525.000000	0.011448	-0.011328	100.000000
526.000000	0.011260	0.002238	100.000000
527.000000	0.011091	-0.004442	100.000000
528.000000	0.010947	-0.031743	100.000000
529.000000	0.010829	-0.002703	100.000000
530.000000	0.010724	-0.009535	100.000000
531.000000	0.010637	-0.019873	100.000000
532.000000	0.010577	-0.014940	100.000000
533.000000	0.010525	-0.021536	100.000000
534.000000	0.010476	-0.028416	100.000000
535.000000	0.010448	-0.006024	100.000000
536.000000	0.010448	-0.008048	100.000000
537.000000	0.010477	-0.019758	100.000000
538.000000	0.010540	-0.009691	100.000000
539.000000	0.010625	-0.038761	100.000000
540.000000	0.010705	-0.006274	100.000000
541.000000	0.010776	-0.026680	100.000000
542.000000	0.010838	-0.011283	100.000000
543.000000	0.010888	-0.016301	100.000000
544.000000	0.010933	-0.020049	100.000000
545.000000	0.010980	-0.009255	100.000000
546.000000	0.011025	-0.012991	100.000000
547.000000	0.011052	-0.007866	100.000000
548.000000	0.011059	-0.013235	100.000000
549.000000	0.011061	-0.017965	100.000000
550.000000	0.011074	-0.004557	100.000000
551.000000	0.011101	0.002611	100.000000
552.000000	0.011142	-0.016481	100.000000
553.000000	0.011206	-0.019935	100.000000
554.000000	0.011278	-0.014824	100.000000
555.000000	0.011333	-0.007670	100.000000
556.000000	0.011371	-0.009560	100.000000
557.000000	0.011410	-0.024790	100.000000
558.000000	0.011453	-0.023469	100.000000
559.000000	0.011485	-0.007792	100.000000
560.000000	0.011505	0.002214	100.000000
561.000000	0.011530	-0.002661	100.000000
562.000000	0.011568	-0.007838	100.000000
563.000000	0.011617	-0.018002	100.000000
564.000000	0.011663	-0.007828	100.000000
565.000000	0.011700	-0.021402	100.000000
566.000000	0.011737	-0.018216	100.000000
567.000000	0.011765	-0.021475	100.000000
568.000000	0.011778	-0.021485	100.000000
569.000000	0.011792	-0.030240	100.000000
570.000000	0.011809	-0.004357	100.000000
571.000000	0.011824	-0.016184	100.000000
572.000000	0.011839	0.005733	100.000000
573.000000	0.011852	0.016291	100.000000
574.000000	0.011855	-0.030444	100.000000
575.000000	0.011848	-0.000965	100.000000
576.000000	0.011834	-0.021850	100.000000
577.000000	0.011817	-0.011265	100.000000
578.000000	0.011805	-0.000950	100.000000
579.000000	0.011792	-0.008049	100.000000
580.000000	0.011778	-0.021779	100.000000
581.000000	0.011777	-0.014718	100.000000
582.000000	0.011787	-0.017985	100.000000
583.000000	0.011797	-0.017855	100.000000
584.000000	0.011798	-0.004756	100.000000
585.000000	0.011799	-0.005917	100.000000
586.000000	0.011815	-0.025119	100.000000
587.000000	0.011857	-0.007747	100.000000
588.000000	0.011922	-0.018263	100.000000
589.000000	0.012010	-0.028376	100.000000
590.000000	0.012121	-0.009655	100.000000
591.000000	0.012248	-0.016360	100.000000
592.000000	0.012391	-0.016498	100.000000
593.000000	0.012557	-0.012976	100.000000
594.000000	0.012746	-0.012890	100.000000
595.000000	0.012935	-0.019771	100.000000
596.000000	0.013119	-0.009856	100.000000
597.000000	0.013309	-0.016443	100.000000
598.000000	0.013507	0.002243	100.000000
599.000000	0.013720	-0.014791	100.000000
600.000000	0.013953	0.003849	100.000000
601.000000	0.014205	-0.016444	100.000000
602.000000	0.014467	-0.009691	100.000000
603.000000	0.014726	-0.011390	100.000000
604.000000	0.014985	-0.012936	100.000000
605.000000	0.015253	-0.026768	100.000000
606.000000	0.015530	-0.016415	100.000000
607.000000	0.015811	-0.028009	100.000000
608.000000	0.016088	-0.016462	100.000000
609.000000	0.016354	-0.014599	100.000000
610.000000	0.016607	-0.014870	100.000000
611.000000	0.016849	-0.009912	100.000000
612.000000	0.017086	-0.009784	100.000000
613.000000	0.017320	-0.007704	100.000000
614.000000	0.017552	-0.031810	100.000000
615.000000	0.017773	-0.006230	100.000000
616.000000	0.017987	-0.004368	100.000000
617.000000	0.018205	-0.028593	100.000000
618.000000	0.018437	-0.016581	100.000000
619.000000	0.018669	-0.020236	100.000000
620.000000	0.018883	-0.023306	100.000000
621.000000	0.019078	-0.008042	100.000000
622.000000	0.019248	-0.006173	100.000000
623.000000	0.019386	-0.013073	100.000000
624.000000	0.019512	-0.016396	100.000000
625.000000	0.019643	-0.026882	100.000000
626.000000	0.019770	-0.026823	100.000000
627.000000	0.019876	-0.011415	100.000000
628.000000	0.019963	-0.016519	100.000000
629.000000	0.020046	-0.006075	100.000000
630.000000	0.020128	-0.009870	100.000000
631.000000	0.020207	-0.021668	100.000000
632.000000	0.020297	-0.023349	100.000000
633.000000	0.020392	-0.004556	100.000000
634.000000	0.020468	-0.018225	100.000000
635.000000	0.020525	-0.025038	100.000000
636.000000	0.020580	-0.004513	100.000000
637.000000	0.020643	-0.006321	100.000000
638.000000	0.020705	-0.015059	100.000000
639.000000	0.020764	-0.009876	100.000000
640.000000	0.020826	-0.015146	100.000000
641.000000	0.020887	-0.007997	100.000000
642.000000	0.020950	-0.027001	100.000000
643.000000	0.021028	-0.016694	100.000000
644.000000	0.021112	-0.006558	100.000000
645.000000	0.021186	-0.003065	100.000000
646.000000	0.021252	-0.016933	100.000000
647.000000	0.021330	0.007564	100.000000
648.000000	0.021431	-0.018248	100.000000
649.000000	0.021542	-0.011501	100.000000
650.000000	0.021660	-0.015044	100.000000
651.000000	0.021792	-0.018460	100.000000
652.000000	0.021930	0.000416	100.000000
653.000000	0.022052	-0.011449	100.000000
654.000000	0.022148	-0.013517	100.000000
655.000000	0.022228	-0.019875	100.000000
656.000000	0.022297	0.005329	100.000000
657.000000	0.022356	-0.023379	100.000000
658.000000	0.022410	-0.017003	100.000000
659.000000	0.022458	-0.015164	100.000000
660.000000	0.022487	-4.841794E-6	100.000000
661.000000	0.022498	-0.003081	100.000000
662.000000	0.022509	-0.004985	100.000000
663.000000	0.022526	-0.013163	100.000000
664.000000	0.022541	-0.001530	100.000000
665.000000	0.022558	-0.015061	100.000000
666.000000	0.022577	0.005329	100.000000
667.000000	0.022583	0.000159	100.000000
668.000000	0.022567	-0.018714	100.000000
669.000000	0.022547	-0.015166	100.000000
670.000000	0.022541	0.005482	100.000000
671.000000	0.022562	-0.022020	100.000000
672.000000	0.022601	-0.022190	100.000000
673.000000	0.022635	-0.011688	100.000000
674.000000	0.022656	-0.004822	100.000000
675.000000	0.022673	-0.032449	100.000000
676.000000	0.022690	-0.020528	100.000000
677.000000	0.022706	-0.005166	100.000000
678.000000	0.022710	0.003343	100.000000
679.000000	0.022690	-0.001528	100.000000
680.000000	0.022658	-0.017053	100.000000
681.000000	0.022627	0.005326	100.000000
682.000000	0.022600	-0.004972	100.000000
683.000000	0.022582	-0.011695	100.000000
684.000000	0.022565	0.005217	100.000000
685.000000	0.022535	0.000387	100.000000
686.000000	0.022495	-0.010213	100.000000
687.000000	0.022458	-0.004756	100.000000
688.000000	0.022435	-0.010033	100.000000
689.000000	0.022429	-0.023806	100.000000
690.000000	0.022439	-0.003480	100.000000
691.000000	0.022460	-0.015105	100.000000
692.000000	0.022488	-0.012038	100.000000
693.000000	0.022522	-0.008215	100.000000
694.000000	0.022540	-0.001671	100.000000
695.000000	0.022554	0.003608	100.000000
696.000000	0.022589	0.000101	100.000000
697.000000	0.022637	0.010424	100.000000
698.000000	0.022683	-0.027339	100.000000
699.000000	0.022734	-0.006722	100.000000
700.000000	0.022796	-0.022298	100.000000
701.000000	0.022861	-0.013570	100.000000
702.000000	0.022915	-0.018954	100.000000
703.000000	0.022955	0.001950	100.000000
704.000000	0.022987	-0.018849	100.000000
705.000000	0.023022	-0.001735	100.000000
706.000000	0.023063	-0.013633	100.000000
707.000000	0.023102	-0.008478	100.000000
708.000000	0.023130	-0.003384	100.000000
709.000000	0.023150	-0.008505	100.000000
710.000000	0.023175	-0.011990	100.000000
711.000000	0.023212	-0.000152	100.000000
712.000000	0.023254	-0.008578	100.000000
713.000000	0.023294	-0.001734	100.000000
714.000000	0.023330	-0.005300	100.000000
715.000000	0.023361	-0.001703	100.000000
716.000000	0.023399	0.018825	100.000000
717.000000	0.023457	-0.003527	100.000000
718.000000	0.023527	-0.001916	100.000000
719.000000	0.023611	0.003394	100.000000
720.000000	0.023714	-0.002042	100.000000
721.000000	0.023836	-0.013669	100.000000
722.000000	0.023983	0.003005	100.000000
723.000000	0.024160	-0.000162	100.000000
724.000000	0.024368	-0.003741	100.000000
725.000000	0.024610	-0.005593	100.000000
726.000000	0.024881	0.013218	100.000000
727.000000	0.025176	0.008221	100.000000
728.000000	0.025498	0.018365	100.000000
729.000000	0.025845	0.011515	100.000000
730.000000	0.026214	0.004442	100.000000
731.000000	0.026615	0.002777	100.000000
732.000000	0.027060	0.012934	100.000000
733.000000	0.027553	0.024956	100.000000
734.000000	0.028091	0.034995	100.000000
735.000000	0.028662	0.000627	100.000000
736.000000	0.029253	0.022816	100.000000
737.000000	0.029857	0.005812	100.000000
738.000000	0.030483	0.017712	100.000000
739.000000	0.031154	0.028129	100.000000
740.000000	0.031877	0.019090	100.000000
741.000000	0.032641	0.008780	100.000000
742.000000	0.033446	0.019204	100.000000
743.000000	0.034303	0.012293	100.000000
744.000000	0.035220	0.013796	100.000000
745.000000	0.036196	0.022157	100.000000
746.000000	0.037224	0.020342	100.000000
747.000000	0.038303	0.027319	100.000000
748.000000	0.039437	0.013511	100.000000
749.000000	0.040630	0.037507	100.000000
750.000000	0.041888	0.023419	100.000000
751.000000	0.043218	0.028487	100.000000
752.000000	0.044621	0.028551	100.000000
753.000000	0.046103	0.040083	100.000000
754.000000	0.047667	0.034566	100.000000
755.000000	0.049313	0.039856	100.000000
756.000000	0.051041	0.039604	100.000000
757.000000	0.052864	0.044829	100.000000
758.000000	0.054783	0.044469	100.000000
759.000000	0.056814	0.035695	100.000000
760.000000	0.058977	0.061200	100.000000
761.000000	0.061285	0.062624	100.000000
762.000000	0.063750	0.065754	100.000000
763.000000	0.066385	0.070850	100.000000
764.000000	0.069204	0.060254	100.000000
765.000000	0.072206	0.059870	100.000000
766.000000	0.075371	0.066613	100.000000
767.000000	0.078693	0.079911	100.000000
768.000000	0.082176	0.081577	100.000000
769.000000	0.085813	0.074460	100.000000
770.000000	0.089602	0.092910	100.000000
771.000000	0.093538	0.079184	100.000000
772.000000	0.097609	0.089043	100.000000
773.000000	0.101807	0.099328	100.000000
774.000000	0.106123	0.107510	100.000000
775.000000	0.110547	0.102357	100.000000
776.000000	0.115078	0.107104	100.000000
777.000000	0.119722	0.103512	100.000000
778.000000	0.124478	0.113263	100.000000
779.000000	0.129349	0.101357	100.000000
780.000000	0.134336	0.123120	100.000000
781.000000	0.139430	0.128473	100.000000
782.000000	0.144616	0.131632	100.000000
783.000000	0.149880	0.120594	100.000000
784.000000	0.155213	0.118511	100.000000
785.000000	0.160604	0.134058	100.000000
786.000000	0.166046	0.137256	100.000000
787.000000	0.171538	0.154164	100.000000
788.000000	0.177071	0.146997	100.000000
789.000000	0.182642	0.134703	100.000000
790.000000	0.188253	0.158534	100.000000
791.000000	0.193896	0.166640	100.000000
792.000000	0.199567	0.175344	100.000000
793.000000	0.205266	0.149297	100.000000
794.000000	0.211004	0.164342	100.000000
795.000000	0.216780	0.162454	100.000000
796.000000	0.222587	0.184511	100.000000
797.000000	0.228412	0.165546	100.000000
798.000000	0.234244	0.159750	100.000000
799.000000	0.240085	0.183929	100.000000
800.000000	0.245929	0.178182	100.000000
801.000000	0.251771	0.168092	100.000000
802.000000	0.257608	0.193205	100.000000
803.000000	0.263442	0.181242	100.000000
804.000000	0.269282	0.191108	100.000000
805.000000	0.275119	0.189221	100.000000
806.000000	0.280939	0.192358	100.000000
807.000000	0.286748	0.197394	100.000000
808.000000	0.292549	0.191461	100.000000
809.000000	0.298330	0.203647	100.000000
810.000000	0.304085	0.203308	100.000000
811.000000	0.309811	0.211502	100.000000
812.000000	0.315507	0.199438	100.000000
813.000000	0.321192	0.213129	100.000000
814.000000	0.326885	0.224864	100.000000
815.000000	0.332586	0.221109	100.000000
816.000000	0.338281	0.208661	100.000000
817.000000	0.343976	0.215316	100.000000
818.000000	0.349689	0.228776	100.000000
819.000000	0.355420	0.230371	100.000000
820.000000	0.361168	0.221246	100.000000
821.000000	0.366949	0.212464	100.000000
822.000000	0.372781	0.234524	100.000000
823.000000	0.378672	0.209956	100.000000
824.000000	0.384628	0.211312	100.000000
825.000000	0.390672	0.212712	100.000000
826.000000	0.396839	0.220791	100.000000
827.000000	0.403146	0.220382	100.000000
828.000000	0.409598	0.230129	100.000000
829.000000	0.416204	0.226173	100.000000
830.000000	0.422972	0.240943	100.000000
831.000000	0.429904	0.232047	100.000000
832.000000	0.437010	0.233195	100.000000
833.000000	0.444304	0.261783	100.000000
834.000000	0.451798	0.266432	100.000000
835.000000	0.459509	0.254112	100.000000
836.000000	0.467437	0.270400	100.000000
837.000000	0.475569	0.266541	100.000000
838.000000	0.483907	0.283258	100.000000
839.000000	0.492447	0.306280	100.000000
840.000000	0.501183	0.280583	100.000000
841.000000	0.510117	0.295447	100.000000
842.000000	0.519253	0.306935	100.000000
843.000000	0.528580	0.316765	100.000000
844.000000	0.538092	0.319501	100.000000
845.000000	0.547795	0.317242	100.000000
846.000000	0.557683	0.313319	100.000000
847.000000	0.567744	0.329664	100.000000
848.000000	0.577962	0.353225	100.000000
849.000000	0.588323	0.359597	100.000000
850.000000	0.598832	0.365591	100.000000
851.000000	0.609496	0.365131	100.000000
852.000000	0.620301	0.372955	100.000000
853.000000	0.631234	0.377815	100.000000
854.000000	0.642278	0.385682	100.000000
855.000000	0.653405	0.397256	100.000000
856.000000	0.664589	0.388335	100.000000
857.000000	0.675823	0.416655	100.000000
858.000000	0.687122	0.407404	100.000000
859.000000	0.698511	0.440964	100.000000
860.000000	0.710005	0.434648	100.000000
861.000000	0.721621	0.453105	100.000000
862.000000	0.733369	0.457708	100.000000
863.000000	0.745236	0.458985	100.000000
864.000000	0.757175	0.480791	100.000000
865.000000	0.769121	0.485744	100.000000
866.000000	0.781017	0.473488	100.000000
867.000000	0.792818	0.484930	100.000000
868.000000	0.804513	0.486193	100.000000
869.000000	0.816101	0.489466	100.000000
870.000000	0.827577	0.478398	100.000000
871.000000	0.838939	0.488352	100.000000
872.000000	0.850189	0.486272	100.000000
873.000000	0.861344	0.492550	100.000000
874.000000	0.872426	0.507636	100.000000
875.000000	0.883453	0.470783	100.000000
876.000000	0.894423	0.506479	100.000000
877.000000	0.905321	0.507712	100.000000
878.000000	0.916145	0.505468	100.000000
879.000000	0.926891	0.517082	100.000000
880.000000	0.937556	0.514817	100.000000
881.000000	0.948150	0.512653	100.000000
882.000000	0.958684	0.520763	100.000000
883.000000	0.969167	0.546007	100.000000
884.000000	0.979587	0.517782	100.000000
885.000000	0.989938	0.541573	100.000000
886.000000	1.000233	0.539208	100.000000
887.000000	1.010475	0.540528	100.000000
888.000000	1.020682	0.519329	100.000000
889.000000	1.030880	0.530840	100.000000
890.000000	1.041056	0.532059	100.000000
891.000000	1.051196	0.535280	100.000000
892.000000	1.061309	0.536514	100.000000
893.000000	1.071407	0.549663	100.000000
894.000000	1.081504	0.555862	100.000000
895.000000	1.091610	0.553627	100.000000
896.000000	1.101710	0.561827	100.000000
897.000000	1.111789	0.561223	100.000000
898.000000	1.121844	0.565674	100.000000
899.000000	1.131881	0.560289	100.000000
900.000000	1.141896	0.558425	100.000000
901.000000	1.151887	0.552782	100.000000
902.000000	1.161861	0.566019	100.000000
903.000000	1.171814	0.560511	100.000000
904.000000	1.181742	0.560053	100.000000
905.000000	1.191648	0.571263	100.000000
906.000000	1.201509	0.572614	100.000000
907.000000	1.211310	0.570632	100.000000
908.000000	1.221055	0.568418	100.000000
909.000000	1.230749	0.580009	100.000000
910.000000	1.240402	0.560616	100.000000
911.000000	1.249998	0.573912	100.000000
912.000000	1.259512	0.575293	100.000000
913.000000	1.268930	0.569912	100.000000
914.000000	1.278256	0.564238	100.000000
915.000000	1.287492	0.562303	100.000000
916.000000	1.296629	0.579289	100.000000
917.000000	1.305673	0.566925	100.000000
918.000000	1.314636	0.562981	100.000000
919.000000	1.323507	0.567932	100.000000
920.000000	1.332260	0.560806	100.000000
921.000000	1.340851	0.565404	100.000000
922.000000	1.349253	0.566733	100.000000
923.000000	1.357457	0.557670	100.000000
924.000000	1.365471	0.553990	100.000000
925.000000	1.373336	0.551754	100.000000
926.000000	1.381088	0.548346	100.000000
927.000000	1.388718	0.549688	100.000000
928.000000	1.396218	0.561658	100.000000
929.000000	1.403592	0.557743	100.000000
930.000000	1.410832	0.559380	100.000000
931.000000	1.417921	0.564282	100.000000
932.000000	1.424865	0.535152	100.000000
933.000000	1.431662	0.565751	100.000000
934.000000	1.438282	0.563278	100.000000
935.000000	1.444706	0.536336	100.000000
936.000000	1.450972	0.547607	100.000000
937.000000	1.457171	0.540441	100.000000
938.000000	1.463401	0.527657	100.000000
939.000000	1.469735	0.530721	100.000000
940.000000	1.476206	0.518745	100.000000
941.000000	1.482793	0.532388	100.000000
942.000000	1.489449	0.537539	100.000000
943.000000	1.496128	0.518632	100.000000
944.000000	1.502785	0.513406	100.000000
945.000000	1.509377	0.518690	100.000000
946.000000	1.515871	0.518609	100.000000
947.000000	1.522243	0.504610	100.000000
948.000000	1.528488	0.502403	100.000000
949.000000	1.534633	0.504052	100.000000
950.000000	1.540725	0.495210	100.000000
951.000000	1.546825	0.482448	100.000000
952.000000	1.552977	0.483819	100.000000
953.000000	1.559208	0.478471	100.000000
954.000000	1.565546	0.471408	100.000000
955.000000	1.571988	0.462501	100.000000
956.000000	1.578507	0.439918	100.000000
957.000000	1.585095	0.465454	100.000000
958.000000	1.591748	0.448416	100.000000
959.000000	1.598445	0.442887	100.000000
960.000000	1.605186	0.425872	100.000000
961.000000	1.611993	0.444006	100.000000
962.000000	1.618871	0.432056	100.000000
963.000000	1.625845	0.436843	100.000000
964.000000	1.632941	0.417674	100.000000
965.000000	1.640167	0.418968	100.000000
966.000000	1.647528	0.422590	100.000000
967.000000	1.655030	0.397992	100.000000
968.000000	1.662671	0.409801	100.000000
969.000000	1.670443	0.399134	100.000000
970.000000	1.678347	0.405905	100.000000
971.000000	1.686395	0.395416	100.000000
972.000000	1.694596	0.381415	100.000000
973.000000	1.702947	0.403201	100.000000
974.000000	1.711427	0.396053	100.000000
975.000000	1.720021	0.394080	100.000000
976.000000	1.728716	0.392386	100.000000
977.000000	1.737495	0.355766	100.000000
978.000000	1.746344	0.372851	100.000000
979.000000	1.755247	0.365684	100.000000
980.000000	1.764183	0.370680	100.000000
981.000000	1.773150	0.368367	100.000000
982.000000	1.782145	0.363104	100.000000
983.000000	1.791176	0.364356	100.000000
984.000000	1.800247	0.374619	100.000000
985.000000	1.809347	0.336528	100.000000
986.000000	1.818480	0.358560	100.000000
987.000000	1.827663	0.349588	100.000000
988.000000	1.836900	0.358030	100.000000
989.000000	1.846186	0.362512	100.000000
990.000000	1.855512	0.343510	100.000000
991.000000	1.864877	0.355062	100.000000
992.000000	1.874301	0.356778	100.000000
993.000000	1.883811	0.358025	100.000000
994.000000	1.893421	0.342033	100.000000
995.000000	1.903135	0.348261	100.000000
996.000000	1.912965	0.356779	100.000000
997.000000	1.922926	0.343942	100.000000
998.000000	1.933034	0.352145	100.000000
999.000000	1.943306	0.353264	100.000000
1000.000000	1.953746	0.347652	100.000000
1001.000000	1.964344	0.340189	100.000000
1002.000000	1.975098	0.350051	100.000000
1003.000000	1.986021	0.349461	100.000000
1004.000000	1.997129	0.347286	100.000000
1005.000000	2.008421	0.345193	100.000000
1006.000000	2.019899	0.346619	100.000000
1007.000000	2.031555	0.345746	100.000000
1008.000000	2.043370	0.340384	100.000000
1009.000000	2.055333	0.339843	100.000000
1010.000000	2.067441	0.352852	100.000000
1011.000000	2.079685	0.347086	100.000000
1012.000000	2.092065	0.341510	100.000000
1013.000000	2.104604	0.339135	100.000000
1014.000000	2.117304	0.349034	100.000000
1015.000000	2.130143	0.344913	100.000000
1016.000000	2.143096	0.348105	100.000000
1017.000000	2.156157	0.347486	100.000000
1018.000000	2.169320	0.367668	100.000000
1019.000000	2.182548	0.365621	100.000000
1020.000000	2.195811	0.353104	100.000000
1021.000000	2.209093	0.353080	100.000000
1022.000000	2.222379	0.348805	100.000000
1023.000000	2.235650	0.359147	100.000000
1024.000000	2.248881	0.336507	100.000000
1025.000000	2.262046	0.351563	100.000000
1026.000000	2.275134	0.359563	100.000000
1027.000000	2.288146	0.345659	100.000000
1028.000000	2.301076	0.352294	100.000000
1029.000000	2.313902	0.350244	100.000000
1030.000000	2.326585	0.356873	100.000000
1031.000000	2.339100	0.339398	100.000000
1032.000000	2.351447	0.346028	100.000000
1033.000000	2.363633	0.339072	100.000000
1034.000000	2.375661	0.338645	100.000000
1035.000000	2.387528	0.328151	100.000000
1036.000000	2.399224	0.338144	100.000000
1037.000000	2.410743	0.317212	100.000000
1038.000000	2.422085	0.330891	100.000000
1039.000000	2.433257	0.347722	100.000000
1040.000000	2.444267	0.314845	100.000000
1041.000000	2.455118	0.311122	100.000000
1042.000000	2.465806	0.317609	100.000000
1043.000000	2.476337	0.303949	100.000000
1044.000000	2.486728	0.327515	100.000000
1045.000000	2.496980	0.303095	100.000000
1046.000000	2.507096	0.306593	100.000000
1047.000000	2.517100	0.306249	100.000000
1048.000000	2.527005	0.312877	100.000000
1049.000000	2.536803	0.326382	100.000000
1050.000000	2.546470	0.304020	100.000000
1051.000000	2.556004	0.305295	100.000000
1052.000000	2.565420	0.317310	100.000000
1053.000000	2.574720	0.306603	100.000000
1054.000000	2.583911	0.309847	100.000000
1055.000000	2.592994	0.316409	100.000000
1056.000000	2.601962	0.333463	100.000000
1057.000000	2.610823	0.317589	100.000000
1058.000000	2.619598	0.320547	100.000000
1059.000000	2.628293	0.316828	100.000000
1060.000000	2.636921	0.314711	100.000000
1061.000000	2.645505	0.328333	100.000000
1062.000000	2.654060	0.312424	100.000000
1063.000000	2.662584	0.327551	100.000000
1064.000000	2.671075	0.316858	100.000000
1065.000000	2.679531	0.345933	100.000000
1066.000000	2.687972	0.328233	100.000000
1067.000000	2.696409	0.338687	100.000000
1068.000000	2.704823	0.327984	100.000000
1069.000000	2.713190	0.315732	100.000000
1070.000000	2.721507	0.331026	100.000000
1071.000000	2.729772	0.313865	100.000000
1072.000000	2.737978	0.332497	100.000000
1073.000000	2.746124	0.309995	100.000000
1074.000000	2.754211	0.333870	100.000000
1075.000000	2.762240	0.311475	100.000000
1076.000000	2.770212	0.316488	100.000000
1077.000000	2.778123	0.324940	100.000000
1078.000000	2.785958	0.321658	100.000000
1079.000000	2.793706	0.329634	100.000000
1080.000000	2.801360	0.322701	100.000000
1081.000000	2.808913	0.329243	100.000000
1082.000000	2.816355	0.329316	100.000000
1083.000000	2.823688	0.327648	100.000000
1084.000000	2.830913	0.323854	100.000000
1085.000000	2.838023	0.320324	100.000000
1086.000000	2.845007	0.321848	100.000000
1087.000000	2.851870	0.316766	100.000000
1088.000000	2.858623	0.320010	100.000000
1089.000000	2.865265	0.326933	100.000000
1090.000000	2.871798	0.340789	100.000000
1091.000000	2.878228	0.323359	100.000000
1092.000000	2.884556	0.311291	100.000000
1093.000000	2.890785	0.314852	100.000000
1094.000000	2.896912	0.314576	100.000000
1095.000000	2.902927	0.318126	100.000000
1096.000000	2.908821	0.324807	100.000000
1097.000000	2.914585	0.321237	100.000000
1098.000000	2.920215	0.312813	100.000000
1099.000000	2.925725	0.323040	100.000000
1100.000000	2.931131	0.322863	100.000000
1101.000000	2.936435	0.317856	100.000000
1102.000000	2.941636	0.317764	100.000000
1103.000000	2.946744	0.326100	100.000000
1104.000000	2.951760	0.315839	100.000000
1105.000000	2.956690	0.327792	100.000000
1106.000000	2.961545	0.327672	100.000000
1107.000000	2.966340	0.312012	100.000000
1108.000000	2.971091	0.328935	100.000000
1109.000000	2.975803	0.320403	100.000000
1110.000000	2.980494	0.328899	100.000000
1111.000000	2.985168	0.323498	100.000000
1112.000000	2.989824	0.331909	100.000000
1113.000000	2.994468	0.325256	100.000000
1114.000000	2.999114	0.328470	100.000000
1115.000000	3.003767	0.318084	100.000000
1116.000000	3.008415	0.331613	100.000000
1117.000000	3.013057	0.328277	100.000000
1118.000000	3.017707	0.328021	100.000000
1119.000000	3.022355	0.343493	100.000000
1120.000000	3.026977	0.334671	100.000000
1121.000000	3.031561	0.334634	100.000000
1122.000000	3.036110	0.332977	100.000000
1123.000000	3.040631	0.333203	100.000000
1124.000000	3.045114	0.344727	100.000000
1125.000000	3.049549	0.327952	100.000000
1126.000000	3.053950	0.332664	100.000000
1127.000000	3.058331	0.322699	100.000000
1128.000000	3.062692	0.331092	100.000000
1129.000000	3.067019	0.334734	100.000000
1130.000000	3.071304	0.346615	100.000000
1131.000000	3.075540	0.336378	100.000000
1132.000000	3.079711	0.330906	100.000000
1133.000000	3.083820	0.329696	100.000000
1134.000000	3.087874	0.337972	100.000000
1135.000000	3.091858	0.322648	100.000000
1136.000000	3.095767	0.317239	100.000000
1137.000000	3.099602	0.333054	100.000000
1138.000000	3.103369	0.332913	100.000000
1139.000000	3.107077	0.319334	100.000000
1140.000000	3.110725	0.319151	100.000000
1141.000000	3.114317	0.321043	100.000000
1142.000000	3.117852	0.331058	100.000000
1143.000000	3.121325	0.324621	100.000000
1144.000000	3.124737	0.322457	100.000000
1145.000000	3.128095	0.343186	100.000000
1146.000000	3.131412	0.341343	100.000000
1147.000000	3.134693	0.312410	100.000000
1148.000000	3.137934	0.325822	100.000000
1149.000000	3.141120	0.349844	100.000000
1150.000000	3.144232	0.339159	100.000000
1151.000000	3.147278	0.322325	100.000000
1152.000000	3.150280	0.337394	100.000000
1153.000000	3.153252	0.330501	100.000000
1154.000000	3.156208	0.325417	100.000000
1155.000000	3.159155	0.352870	100.000000
1156.000000	3.162100	0.359465	100.000000
1157.000000	3.165053	0.343997	100.000000
1158.000000	3.168017	0.360692	100.000000
1159.000000	3.170997	0.340395	100.000000
1160.000000	3.174007	0.365847	100.000000
1161.000000	3.177059	0.358946	100.000000
1162.000000	3.180161	0.355207	100.000000
1163.000000	3.183311	0.367063	100.000000
1164.000000	3.186526	0.380682	100.000000
1165.000000	3.189819	0.370422	100.000000
1166.000000	3.193186	0.364960	100.000000
1167.000000	3.196628	0.370239	100.000000
1168.000000	3.200155	0.381826	100.000000
1169.000000	3.203769	0.375312	100.000000
1170.000000	3.207463	0.379747	100.000000
1171.000000	3.211223	0.403823	100.000000
1172.000000	3.215032	0.384725	100.000000
1173.000000	3.218889	0.381391	100.000000
1174.000000	3.222785	0.392983	100.000000
1175.000000	3.226705	0.382934	100.000000
1176.000000	3.230656	0.398329	100.000000
1177.000000	3.234655	0.401529	100.000000
1178.000000	3.238709	0.385915	100.000000
1179.000000	3.242805	0.404759	100.000000
1180.000000	3.246929	0.399411	100.000000
1181.000000	3.251087	0.407997	100.000000
1182.000000	3.255275	0.409549	100.000000
1183.000000	3.259468	0.407941	100.000000
1184.000000	3.263654	0.411033	100.000000
1185.000000	3.267826	0.406027	100.000000
1186.000000	3.271986	0.410932	100.000000
1187.000000	3.276141	0.435019	100.000000
1188.000000	3.280286	0.434794	100.000000
1189.000000	3.284418	0.409132	100.000000
1190.000000	3.288541	0.409004	100.000000
1191.000000	3.292646	0.431309	100.000000
1192.000000	3.296718	0.418951	100.000000
1193.000000	3.300748	0.421017	100.000000
1194.000000	3.304739	0.436244	100.000000
1195.000000	3.308708	0.437927	100.000000
1196.000000	3.312647	0.446442	100.000000
1197.000000	3.316535	0.403795	100.000000
1198.000000	3.320378	0.430613	100.000000
1199.000000	3.324183	0.427235	100.000000
1200.000000	3.327960	0.416920	100.000000
1201.000000	3.331716	0.432316	100.000000
1202.000000	3.335448	0.418511	100.000000
1203.000000	3.339155	0.454548	100.000000
1204.000000	3.342839	0.431902	100.000000
1205.000000	3.346509	0.434034	100.000000
1206.000000	3.350168	0.447419	100.000000
1207.000000	3.353811	0.433778	100.000000
1208.000000	3.357447	0.428554	100.000000
1209.000000	3.361079	0.435332	100.000000
1210.000000	3.364691	0.440232	100.000000
1211.000000	3.368294	0.440433	100.000000
1212.000000	3.371929	0.430162	100.000000
1213.000000	3.375598	0.445488	100.000000
1214.000000	3.379288	0.426336	100.000000
1215.000000	3.383002	0.414511	100.000000
1216.000000	3.386739	0.434727	100.000000
1217.000000	3.390500	0.426418	100.000000
1218.000000	3.394286	0.445014	100.000000
1219.000000	3.398099	0.412212	100.000000
1220.000000	3.401954	0.414098	100.000000
1221.000000	3.405871	0.434527	100.000000
1222.000000	3.409844	0.410710	100.000000
1223.000000	3.413870	0.420649	100.000000
1224.000000	3.417955	0.427435	100.000000
1225.000000	3.422099	0.394780	100.000000
1226.000000	3.426299	0.418702	100.000000
1227.000000	3.430552	0.421735	100.000000
1228.000000	3.434862	0.416718	100.000000
1229.000000	3.439235	0.404609	100.000000
1230.000000	3.443695	0.408039	100.000000
1231.000000	3.448260	0.424855	100.000000
1232.000000	3.452931	0.423341	100.000000
1233.000000	3.457698	0.431403	100.000000
1234.000000	3.462545	0.428322	100.000000
1235.000000	3.467476	0.409194	100.000000
1236.000000	3.472492	0.414307	100.000000
1237.000000	3.477593	0.412643	100.000000
1238.000000	3.482783	0.410751	100.000000
1239.000000	3.488042	0.415806	100.000000
1240.000000	3.493344	0.415793	100.000000
1241.000000	3.498679	0.413981	100.000000
1242.000000	3.504061	0.398247	100.000000
1243.000000	3.509505	0.398335	100.000000
1244.000000	3.515003	0.382671	100.000000
1245.000000	3.520536	0.404901	100.000000
1246.000000	3.526095	0.406553	100.000000
1247.000000	3.531691	0.392928	100.000000
1248.000000	3.537328	0.409837	100.000000
1249.000000	3.542990	0.399674	100.000000
1250.000000	3.548663	0.397568	100.000000
1251.000000	3.554350	0.404966	100.000000
1252.000000	3.560054	0.399265	100.000000
1253.000000	3.565772	0.380244	100.000000
1254.000000	3.571494	0.383653	100.000000
1255.000000	3.577209	0.383669	100.000000
1256.000000	3.582899	0.400744	100.000000
1257.000000	3.588554	0.369921	100.000000
1258.000000	3.594177	0.378391	100.000000
1259.000000	3.599774	0.366351	100.000000
1260.000000	3.605339	0.392099	100.000000
1261.000000	3.610870	0.362710	100.000000
1262.000000	3.616379	0.381851	100.000000
1263.000000	3.621854	0.400407	100.000000
1264.000000	3.627281	0.378134	100.000000
1265.000000	3.632682	0.374819	100.000000
1266.000000	3.638068	0.367754	100.000000
1267.000000	3.643422	0.364289	100.000000
1268.000000	3.648721	0.364201	100.000000
1269.000000	3.653957	0.389929	100.000000
1270.000000	3.659124	0.374453	100.000000
1271.000000	3.664212	0.362672	100.000000
1272.000000	3.669238	0.360799	100.000000
1273.000000	3.674221	0.375988	100.000000
1274.000000	3.679165	0.381153	100.000000
1275.000000	3.684072	0.355386	100.000000
1276.000000	3.688942	0.364050	100.000000
1277.000000	3.693773	0.367400	100.000000
1278.000000	3.698560	0.384680	100.000000
1279.000000	3.703301	0.360190	100.000000
1280.000000	3.707998	0.362106	100.000000
1281.000000	3.712642	0.350124	100.000000
1282.000000	3.717244	0.350177	100.000000
1283.000000	3.721811	0.343178	100.000000
1284.000000	3.726350	0.353625	100.000000
1285.000000	3.730879	0.336672	100.000000
1286.000000	3.735404	0.355240	100.000000
1287.000000	3.739923	0.349607	100.000000
1288.000000	3.744437	0.326065	100.000000
1289.000000	3.748945	0.334405	100.000000
1290.000000	3.753447	0.330768	100.000000
1291.000000	3.757953	0.318891	100.000000
1292.000000	3.762475	0.325505	100.000000
1293.000000	3.767007	0.335660	100.000000
1294.000000	3.771548	0.328750	100.000000
1295.000000	3.776112	0.320009	100.000000
1296.000000	3.780701	0.306260	100.000000
1297.000000	3.785308	0.308020	100.000000
1298.000000	3.789944	0.300894	100.000000
1299.000000	3.794634	0.312933	100.000000
1300.000000	3.799391	0.293970	100.000000
1301.000000	3.804192	0.305966	100.000000
1302.000000	3.809017	0.317869	100.000000
1303.000000	3.813885	0.309554	100.000000
1304.000000	3.818803	0.302600	100.000000
1305.000000	3.823750	0.298940	100.000000
1306.000000	3.828710	0.307556	100.000000
1307.000000	3.833683	0.300400	100.000000
1308.000000	3.838676	0.291821	100.000000
1309.000000	3.843699	0.274740	100.000000
1310.000000	3.848761	0.279642	100.000000
1311.000000	3.853856	0.297053	100.000000
1312.000000	3.858962	0.279774	100.000000
1313.000000	3.864052	0.283122	100.000000
1314.000000	3.869127	0.274732	100.000000
1315.000000	3.874207	0.281113	100.000000
1316.000000	3.879281	0.296548	100.000000
1317.000000	3.884336	0.272699	100.000000
1318.000000	3.889366	0.270778	100.000000
1319.000000	3.894361	0.270840	100.000000
1320.000000	3.899316	0.268959	100.000000
1321.000000	3.904230	0.284625	100.000000
1322.000000	3.909106	0.282871	100.000000
1323.000000	3.913943	0.250121	100.000000
1324.000000	3.918728	0.261957	100.000000
1325.000000	3.923445	0.272434	100.000000
1326.000000	3.928086	0.248558	100.000000
1327.000000	3.932660	0.274169	100.000000
1328.000000	3.937175	0.265227	100.000000
1329.000000	3.941615	0.257042	100.000000
1330.000000	3.945963	0.256716	100.000000
1331.000000	3.950212	0.260228	100.000000
1332.000000	3.954360	0.242765	100.000000
1333.000000	3.958416	0.249824	100.000000
1334.000000	3.962399	0.251517	100.000000
1335.000000	3.966307	0.249968	100.000000
1336.000000	3.970132	0.249843	100.000000
1337.000000	3.973872	0.248079	100.000000
1338.000000	3.977531	0.246365	100.000000
1339.000000	3.981119	0.224190	100.000000
1340.000000	3.984639	0.246425	100.000000
1341.000000	3.988095	0.241193	100.000000
1342.000000	3.991500	0.234252	100.000000
1343.000000	3.994862	0.232586	100.000000
1344.000000	3.998177	0.241041	100.000000
1345.000000	4.001445	0.237830	100.000000
1346.000000	4.004667	0.239461	100.000000
1347.000000	4.007843	0.241176	100.000000
1348.000000	4.010984	0.232339	100.000000
1349.000000	4.014100	0.242714	100.000000
1350.000000	4.017198	0.239304	100.000000
1351.000000	4.020276	0.232352	100.000000
1352.000000	4.023319	0.249465	100.000000
1353.000000	4.026318	0.230771	100.000000
1354.000000	4.029279	0.249673	100.000000
1355.000000	4.032218	0.242568	100.000000
1356.000000	4.035137	0.247840	100.000000
1357.000000	4.038011	0.240805	100.000000
1358.000000	4.040826	0.223687	100.000000
1359.000000	4.043598	0.242334	100.000000
1360.000000	4.046332	0.230447	100.000000
1361.000000	4.049031	0.223518	100.000000
1362.000000	4.051703	0.221446	100.000000
1363.000000	4.054346	0.230231	100.000000
1364.000000	4.056950	0.240417	100.000000
1365.000000	4.059527	0.233893	100.000000
1366.000000	4.062085	0.221590	100.000000
1367.000000	4.064633	0.237168	100.000000
1368.000000	4.067191	0.245595	100.000000
1369.000000	4.069744	0.245633	100.000000
1370.000000	4.072254	0.247023	100.000000
1371.000000	4.074705	0.233452	100.000000
1372.000000	4.077095	0.240160	100.000000
1373.000000	4.079429	0.230174	100.000000
1374.000000	4.081724	0.238499	100.000000
1375.000000	4.083999	0.233494	100.000000
1376.000000	4.086273	0.245279	100.000000
1377.000000	4.088557	0.241836	100.000000
1378.000000	4.090853	0.256979	100.000000
1379.000000	4.093163	0.250260	100.000000
1380.000000	4.095487	0.234600	100.000000
1381.000000	4.097829	0.227803	100.000000
1382.000000	4.100197	0.244668	100.000000
1383.000000	4.102606	0.243115	100.000000
1384.000000	4.105059	0.242579	100.000000
1385.000000	4.107546	0.251461	100.000000
1386.000000	4.110080	0.259624	100.000000
1387.000000	4.112679	0.256230	100.000000
1388.000000	4.115348	0.267813	100.000000
1389.000000	4.118084	0.250709	100.000000
1390.000000	4.120882	0.272914	100.000000
1391.000000	4.123754	0.248868	100.000000
1392.000000	4.126715	0.260751	100.000000
1393.000000	4.129792	0.267370	100.000000
1394.000000	4.132999	0.270555	100.000000
1395.000000	4.136332	0.248271	100.000000
1396.000000	4.139790	0.267074	100.000000
1397.000000	4.143381	0.268512	100.000000
1398.000000	4.147104	0.283540	100.000000
1399.000000	4.150953	0.251205	100.000000
1400.000000	4.154919	0.281836	100.000000
1401.000000	4.159002	0.274989	100.000000
1402.000000	4.163205	0.285030	100.000000
1403.000000	4.167510	0.269425	100.000000
1404.000000	4.171888	0.293298	100.000000
1405.000000	4.176350	0.277778	100.000000
1406.000000	4.180886	0.282738	100.000000
1407.000000	4.185460	0.287853	100.000000
1408.000000	4.190086	0.279008	100.000000
1409.000000	4.194790	0.289351	100.000000
1410.000000	4.199550	0.287349	100.000000
1411.000000	4.204346	0.285538	100.000000
1412.000000	4.209174	0.297430	100.000000
1413.000000	4.214026	0.292155	100.000000
1414.000000	4.218897	0.303887	100.000000
1415.000000	4.223782	0.290302	100.000000
1416.000000	4.228686	0.306932	100.000000
1417.000000	4.233605	0.276130	100.000000
1418.000000	4.238529	0.300278	100.000000
1419.000000	4.243454	0.305145	100.000000
1420.000000	4.248393	0.298080	100.000000
1421.000000	4.253355	0.301520	100.000000
1422.000000	4.258331	0.301204	100.000000
1423.000000	4.263310	0.299552	100.000000
1424.000000	4.268308	0.287358	100.000000
1425.000000	4.273339	0.301095	100.000000
1426.000000	4.278403	0.304284	100.000000
1427.000000	4.283497	0.278798	100.000000
1428.000000	4.288622	0.297202	100.000000
1429.000000	4.293775	0.302308	100.000000
1430.000000	4.298938	0.308729	100.000000
1431.000000	4.304103	0.298700	100.000000
1432.000000	4.309284	0.288205	100.000000
1433.000000	4.314486	0.289765	100.000000
1434.000000	4.319691	0.299721	100.000000
1435.000000	4.324885	0.298147	100.000000
1436.000000	4.330072	0.307905	100.000000
1437.000000	4.335255	0.301333	100.000000
1438.000000	4.340441	0.295981	100.000000
1439.000000	4.345639	0.307890	100.000000
1440.000000	4.350857	0.307582	100.000000
1441.000000	4.356097	0.306013	100.000000
1442.000000	4.361346	0.293511	100.000000
1443.000000	4.366592	0.300629	100.000000
1444.000000	4.371840	0.302241	100.000000
1445.000000	4.377089	0.305549	100.000000
1446.000000	4.382326	0.286424	100.000000
1447.000000	4.387535	0.312065	100.000000
1448.000000	4.392715	0.301695	100.000000
1449.000000	4.397875	0.305238	100.000000
1450.000000	4.403009	0.289578	100.000000
1451.000000	4.408116	0.291349	100.000000
1452.000000	4.413202	0.301196	100.000000
1453.000000	4.418264	0.283989	100.000000
1454.000000	4.423295	0.292473	100.000000
1455.000000	4.428293	0.277218	100.000000
1456.000000	4.433264	0.301194	100.000000
1457.000000	4.438218	0.271919	100.000000
1458.000000	4.443162	0.283975	100.000000
1459.000000	4.448107	0.287030	100.000000
1460.000000	4.453039	0.290532	100.000000
1461.000000	4.457919	0.292087	100.000000
1462.000000	4.462736	0.275132	100.000000
1463.000000	4.467524	0.278423	100.000000
1464.000000	4.472303	0.281864	100.000000
1465.000000	4.477066	0.264304	100.000000
1466.000000	4.481808	0.267744	100.000000
1467.000000	4.486528	0.273151	100.000000
1468.000000	4.491239	0.267622	100.000000
1469.000000	4.495947	0.260577	100.000000
1470.000000	4.500651	0.274223	100.000000
1471.000000	4.505344	0.262222	100.000000
1472.000000	4.510009	0.268990	100.000000
1473.000000	4.514642	0.260318	100.000000
1474.000000	4.519254	0.244632	100.000000
1475.000000	4.523860	0.236170	100.000000
1476.000000	4.528471	0.254818	100.000000
1477.000000	4.533086	0.227437	100.000000
1478.000000	4.537692	0.247816	100.000000
1479.000000	4.542282	0.234087	100.000000
1480.000000	4.546857	0.239178	100.000000
1481.000000	4.551418	0.235453	100.000000
1482.000000	4.555972	0.249073	100.000000
1483.000000	4.560528	0.252622	100.000000
1484.000000	4.565087	0.228532	100.000000
1485.000000	4.569653	0.208085	100.000000
1486.000000	4.574222	0.226706	100.000000
1487.000000	4.578775	0.224947	100.000000
1488.000000	4.583312	0.211212	100.000000
1489.000000	4.587826	0.205914	100.000000
1490.000000	4.592308	0.205710	100.000000
1491.000000	4.596774	0.202331	100.000000
1492.000000	4.601252	0.198737	100.000000
1493.000000	4.605748	0.193813	100.000000
1494.000000	4.610245	0.186652	100.000000
1495.000000	4.614725	0.183171	100.000000
1496.000000	4.619185	0.198234	100.000000
1497.000000	4.623627	0.184866	100.000000
1498.000000	4.628062	0.167554	100.000000
1499.000000	4.632503	0.175935	100.000000
1500.000000	4.636955	0.151613	100.000000
1501.000000	4.641427	0.148354	100.000000
1502.000000	4.645918	0.160322	100.000000
1503.000000	4.650424	0.144787	100.000000
1504.000000	4.654963	0.149687	100.000000
1505.000000	4.659566	0.156455	100.000000
1506.000000	4.664250	0.144219	100.000000
1507.000000	4.669011	0.149269	100.000000
1508.000000	4.673851	0.138792	100.000000
1509.000000	4.678784	0.125145	100.000000
1510.000000	4.683806	0.106038	100.000000
1511.000000	4.688911	0.119591	100.000000
1512.000000	4.694100	0.116183	100.000000
1513.000000	4.699372	0.110876	100.000000
1514.000000	4.704730	0.112169	100.000000
1515.000000	4.710176	0.093365	100.000000
1516.000000	4.715713	0.093197	100.000000
1517.000000	4.721339	0.089566	100.000000
1518.000000	4.727052	0.082658	100.000000
1519.000000	4.732845	0.091060	100.000000
1520.000000	4.738699	0.092460	100.000000
1521.000000	4.744617	0.063356	100.000000
1522.000000	4.750608	0.075385	100.000000
1523.000000	4.756664	0.078763	100.000000
1524.000000	4.762783	0.054529	100.000000
1525.000000	4.768972	0.057489	100.000000
1526.000000	4.775233	0.055904	100.000000
1527.000000	4.781571	0.048952	100.000000
1528.000000	4.787984	0.048663	100.000000
1529.000000	4.794435	0.060485	100.000000
1530.000000	4.800897	0.043291	100.000000
1531.000000	4.807405	0.046533	100.000000
1532.000000	4.813984	0.020896	100.000000
1533.000000	4.820627	0.019022	100.000000
1534.000000	4.827336	0.022472	100.000000
1535.000000	4.834109	0.015174	100.000000
1536.000000	4.840931	0.025382	100.000000
1537.000000	4.847807	-0.000479	100.000000
1538.000000	4.854740	0.004370	100.000000
1539.000000	4.861716	0.002567	100.000000
1540.000000	4.868729	-0.000653	100.000000
1541.000000	4.875772	0.002416	100.000000
1542.000000	4.882832	-0.012739	100.000000
1543.000000	4.889909	-0.018211	100.000000
1544.000000	4.897002	-0.019728	100.000000
1545.000000	4.904110	-0.027132	100.000000
1546.000000	4.911228	-0.016754	100.000000
1547.000000	4.918353	-0.052999	100.000000
1548.000000	4.925486	-0.041237	100.000000
1549.000000	4.932627	-0.072058	100.000000
1550.000000	4.939764	-0.039520	100.000000
1551.000000	4.946883	-0.051842	100.000000
1552.000000	4.953973	-0.055435	100.000000
1553.000000	4.961036	-0.064230	100.000000
1554.000000	4.968071	-0.074534	100.000000
1555.000000	4.975072	-0.081608	100.000000
1556.000000	4.982042	-0.088345	100.000000
1557.000000	4.988992	-0.098727	100.000000
1558.000000	4.995916	-0.104433	100.000000
1559.000000	5.002805	-0.105899	100.000000
1560.000000	5.009660	-0.090372	100.000000
1561.000000	5.016473	-0.116518	100.000000
1562.000000	5.023264	-0.121409	100.000000
1563.000000	5.030058	-0.118104	100.000000
1564.000000	5.036847	-0.135538	100.000000
1565.000000	5.043622	-0.121806	100.000000
1566.000000	5.050390	-0.142640	100.000000
1567.000000	5.057138	-0.135852	100.000000
1568.000000	5.063839	-0.135816	100.000000
1569.000000	5.070490	-0.151645	100.000000
1570.000000	5.077103	-0.144755	100.000000
1571.000000	5.083695	-0.162112	100.000000
1572.000000	5.090269	-0.148203	100.000000
1573.000000	5.096828	-0.162074	100.000000
1574.000000	5.103370	-0.160639	100.000000
1575.000000	5.109880	-0.162469	100.000000
1576.000000	5.116352	-0.159109	100.000000
1577.000000	5.122795	-0.181761	100.000000
1578.000000	5.129206	-0.173029	100.000000
1579.000000	5.135580	-0.171473	100.000000
1580.000000	5.141929	-0.175114	100.000000
1581.000000	5.148258	-0.190670	100.000000
1582.000000	5.154567	-0.189117	100.000000
1583.000000	5.160858	-0.192739	100.000000
1584.000000	5.167130	-0.205052	100.000000
1585.000000	5.173380	-0.224035	100.000000
1586.000000	5.179616	-0.210314	100.000000
1587.000000	5.185841	-0.205372	100.000000
1588.000000	5.192046	-0.222434	100.000000
1589.000000	5.198233	-0.239857	100.000000
1590.000000	5.204402	-0.221180	100.000000
1591.000000	5.210562	-0.228296	100.000000
1592.000000	5.216728	-0.233548	100.000000
1593.000000	5.222894	-0.240215	100.000000
1594.000000	5.229058	-0.245846	100.000000
1595.000000	5.235229	-0.247741	100.000000
1596.000000	5.241405	-0.249625	100.000000
1597.000000	5.247587	-0.275395	100.000000
1598.000000	5.253777	-0.265315	100.000000
1599.000000	5.259979	-0.270644	100.000000
1600.000000	5.266189	-0.267261	100.000000
1601.000000	5.272403	-0.267192	100.000000
1602.000000	5.278620	-0.284812	100.000000
1603.000000	5.284833	-0.291648	100.000000
1604.000000	5.291056	-0.296885	100.000000
1605.000000	5.297293	-0.298923	100.000000
1606.000000	5.303533	-0.304059	100.000000
1607.000000	5.309776	-0.318138	100.000000
1608.000000	5.316020	-0.302927	100.000000
1609.000000	5.322260	-0.326984	100.000000
1610.000000	5.328504	-0.311772	100.000000
1611.000000	5.334761	-0.329199	100.000000
1612.000000	5.341035	-0.325771	100.000000
1613.000000	5.347325	-0.322369	100.000000
1614.000000	5.353626	-0.348261	100.000000
1615.000000	5.359930	-0.351814	100.000000
1616.000000	5.366232	-0.352139	100.000000
1617.000000	5.372528	-0.354063	100.000000
1618.000000	5.378819	-0.350673	100.000000
1619.000000	5.385102	-0.355910	100.000000
1620.000000	5.391368	-0.354302	100.000000
1621.000000	5.397610	-0.352924	100.000000
1622.000000	5.403830	-0.358085	100.000000
1623.000000	5.410033	-0.382247	100.000000
1624.000000	5.416225	-0.397865	100.000000
1625.000000	5.422405	-0.384176	100.000000
1626.000000	5.428568	-0.400150	100.000000
1627.000000	5.434711	-0.392937	100.000000
1628.000000	5.440832	-0.412259	100.000000
1629.000000	5.446924	-0.405272	100.000000
1630.000000	5.452989	-0.400490	100.000000
1631.000000	5.459034	-0.410702	100.000000
1632.000000	5.465052	-0.420963	100.000000
1633.000000	5.471039	-0.407585	100.000000
1634.000000	5.476992	-0.431959	100.000000
1635.000000	5.482914	-0.424883	100.000000
1636.000000	5.488807	-0.438772	100.000000
1637.000000	5.494679	-0.438739	100.000000
1638.000000	5.500534	-0.433981	100.000000
1639.000000	5.506351	-0.425330	100.000000
1640.000000	5.512123	-0.458112	100.000000
1641.000000	5.517863	-0.429140	100.000000
1642.000000	5.523574	-0.461743	100.000000
1643.000000	5.529254	-0.468671	100.000000
1644.000000	5.534904	-0.443338	100.000000
1645.000000	5.540519	-0.469246	100.000000
1646.000000	5.546085	-0.467619	100.000000
1647.000000	5.551587	-0.475957	100.000000
1648.000000	5.557029	-0.472856	100.000000
1649.000000	5.562424	-0.481355	100.000000
1650.000000	5.567795	-0.476343	100.000000
1651.000000	5.573142	-0.481326	100.000000
1652.000000	5.578426	-0.483538	100.000000
1653.000000	5.583634	-0.486835	100.000000
1654.000000	5.588775	-0.495721	100.000000
1655.000000	5.593851	-0.509285	100.000000
1656.000000	5.598856	-0.506074	100.000000
1657.000000	5.603800	-0.512929	100.000000
1658.000000	5.608687	-0.501166	100.000000
1659.000000	5.613510	-0.523283	100.000000
1660.000000	5.618254	-0.506476	100.000000
1661.000000	5.622917	-0.521598	100.000000
1662.000000	5.627507	-0.534120	100.000000
1663.000000	5.632029	-0.527096	100.000000
1664.000000	5.636462	-0.516989	100.000000
1665.000000	5.640782	-0.516793	100.000000
1666.000000	5.645014	-0.536058	100.000000
1667.000000	5.649179	-0.541042	100.000000
1668.000000	5.653275	-0.548165	100.000000
1669.000000	5.657331	-0.565228	100.000000
1670.000000	5.661363	-0.551993	100.000000
1671.000000	5.665358	-0.551597	100.000000
1672.000000	5.669300	-0.546620	100.000000
1673.000000	5.673171	-0.543163	100.000000
1674.000000	5.676975	-0.567498	100.000000
1675.000000	5.680738	-0.586074	100.000000
1676.000000	5.684476	-0.572617	100.000000
1677.000000	5.688173	-0.584556	100.000000
1678.000000	5.691820	-0.570877	100.000000
1679.000000	5.695433	-0.605157	100.000000
1680.000000	5.699023	-0.600301	100.000000
1681.000000	5.702603	-0.618858	100.000000
1682.000000	5.706192	-0.598372	100.000000
1683.000000	5.709785	-0.615635	100.000000
1684.000000	5.713370	-0.612441	100.000000
1685.000000	5.716941	-0.636226	100.000000
1686.000000	5.720504	-0.621117	100.000000
1687.000000	5.724059	-0.620801	100.000000
1688.000000	5.727605	-0.643439	100.000000
1689.000000	5.731143	-0.631346	100.000000
1690.000000	5.734675	-0.646921	100.000000
1691.000000	5.738210	-0.653764	100.000000
1692.000000	5.741748	-0.640390	100.000000
1693.000000	5.745271	-0.652215	100.000000
1694.000000	5.748777	-0.661028	100.000000
1695.000000	5.752268	-0.660900	100.000000
1696.000000	5.755751	-0.651018	100.000000
1697.000000	5.759240	-0.667692	100.000000
1698.000000	5.762740	-0.669758	100.000000
1699.000000	5.766243	-0.664445	100.000000
1700.000000	5.769764	-0.666459	100.000000
1701.000000	5.773320	-0.685317	100.000000
1702.000000	5.776908	-0.674947	100.000000
1703.000000	5.780529	-0.682028	100.000000
1704.000000	5.784183	-0.673546	100.000000
1705.000000	5.787872	-0.673444	100.000000
1706.000000	5.791601	-0.673769	100.000000
1707.000000	5.795364	-0.689048	100.000000
1708.000000	5.799152	-0.685662	100.000000
1709.000000	5.802967	-0.677368	100.000000
1710.000000	5.806813	-0.679054	100.000000
1711.000000	5.810676	-0.686066	100.000000
1712.000000	5.814539	-0.691360	100.000000
1713.000000	5.818409	-0.698312	100.000000
1714.000000	5.822296	-0.698314	100.000000
1715.000000	5.826190	-0.699886	100.000000
1716.000000	5.830089	-0.696425	100.000000
1717.000000	5.833998	-0.708540	100.000000
1718.000000	5.837907	-0.715324	100.000000
1719.000000	5.841811	-0.720949	100.000000
1720.000000	5.845719	-0.688013	100.000000
1721.000000	5.849634	-0.720669	100.000000
1722.000000	5.853560	-0.720709	100.000000
1723.000000	5.857511	-0.718912	100.000000
1724.000000	5.861496	-0.729324	100.000000
1725.000000	5.865508	-0.724356	100.000000
1726.000000	5.869531	-0.714190	100.000000
1727.000000	5.873560	-0.729562	100.000000
1728.000000	5.877585	-0.746623	100.000000
1729.000000	5.881590	-0.731448	100.000000
1730.000000	5.885570	-0.719467	100.000000
1731.000000	5.889525	-0.726395	100.000000
1732.000000	5.893465	-0.731504	100.000000
1733.000000	5.897411	-0.746998	100.000000
1734.000000	5.901351	-0.743738	100.000000
1735.000000	5.905274	-0.748910	100.000000
1736.000000	5.909190	-0.740461	100.000000
1737.000000	5.913112	-0.761227	100.000000
1738.000000	5.917039	-0.752509	100.000000
1739.000000	5.920969	-0.735863	100.000000
1740.000000	5.924893	-0.740737	100.000000
1741.000000	5.928794	-0.740907	100.000000
1742.000000	5.932679	-0.752949	100.000000
1743.000000	5.936574	-0.763169	100.000000
1744.000000	5.940495	-0.756669	100.000000
1745.000000	5.944436	-0.758357	100.000000
1746.000000	5.948397	-0.772394	100.000000
1747.000000	5.952376	-0.748727	100.000000
1748.000000	5.956370	-0.769029	100.000000
1749.000000	5.960381	-0.764116	100.000000
1750.000000	5.964424	-0.765879	100.000000
1751.000000	5.968516	-0.790088	100.000000
1752.000000	5.972665	-0.764524	100.000000
1753.000000	5.976867	-0.785129	100.000000
1754.000000	5.981117	-0.768087	100.000000
1755.000000	5.985413	-0.754681	100.000000
1756.000000	5.989756	-0.778622	100.000000
1757.000000	5.994150	-0.796094	100.000000
1758.000000	5.998592	-0.756609	100.000000
1759.000000	6.003072	-0.782842	100.000000
1760.000000	6.007578	-0.791314	100.000000
1761.000000	6.012122	-0.781209	100.000000
1762.000000	6.016721	-0.779536	100.000000
1763.000000	6.021370	-0.803512	100.000000
1764.000000	6.026047	-0.771339	100.000000
1765.000000	6.030731	-0.759351	100.000000
1766.000000	6.035432	-0.797171	100.000000
1767.000000	6.040170	-0.790651	100.000000
1768.000000	6.044952	-0.770035	100.000000
1769.000000	6.049770	-0.783731	100.000000
1770.000000	6.054620	-0.780595	100.000000
1771.000000	6.059497	-0.799376	100.000000
1772.000000	6.064377	-0.790860	100.000000
1773.000000	6.069247	-0.787693	100.000000
1774.000000	6.074112	-0.801652	100.000000
1775.000000	6.078961	-0.781093	100.000000
1776.000000	6.083786	-0.793383	100.000000
1777.000000	6.088591	-0.798450	100.000000
1778.000000	6.093381	-0.805386	100.000000
1779.000000	6.098147	-0.800193	100.000000
1780.000000	6.102884	-0.788399	100.000000
1781.000000	6.107575	-0.798678	100.000000
1782.000000	6.112191	-0.783531	100.000000
1783.000000	6.116740	-0.799115	100.000000
1784.000000	6.121226	-0.785330	100.000000
1785.000000	6.125641	-0.799260	100.000000
1786.000000	6.129987	-0.814503	100.000000
1787.000000	6.134263	-0.792458	100.000000
1788.000000	6.138479	-0.801223	100.000000
1789.000000	6.142644	-0.801282	100.000000
1790.000000	6.146754	-0.794519	100.000000
1791.000000	6.150807	-0.789350	100.000000
1792.000000	6.154812	-0.798099	100.000000
1793.000000	6.158776	-0.801733	100.000000
1794.000000	6.162705	-0.815376	100.000000
1795.000000	6.166603	-0.812144	100.000000
1796.000000	6.170475	-0.798341	100.000000
1797.000000	6.174329	-0.801856	100.000000
1798.000000	6.178164	-0.812362	100.000000
1799.000000	6.181968	-0.797025	100.000000
1800.000000	6.185743	-0.798670	100.000000
1801.000000	6.189502	-0.802320	100.000000
1802.000000	6.193242	-0.805970	100.000000
1803.000000	6.196966	-0.810975	100.000000
1804.000000	6.200698	-0.802367	100.000000
1805.000000	6.204430	-0.799007	100.000000
1806.000000	6.208129	-0.821576	100.000000
1807.000000	6.211779	-0.809516	100.000000
1808.000000	6.215397	-0.807935	100.000000
1809.000000	6.218991	-0.802737	100.000000
1810.000000	6.222549	-0.816693	100.000000
1811.000000	6.226077	-0.815158	100.000000
1812.000000	6.229590	-0.816734	100.000000
1813.000000	6.233088	-0.811948	100.000000
1814.000000	6.236579	-0.818720	100.000000
1815.000000	6.240068	-0.808463	100.000000
1816.000000	6.243559	-0.815331	100.000000
1817.000000	6.247041	-0.822462	100.000000
1818.000000	6.250509	-0.831168	100.000000
1819.000000	6.253975	-0.822491	100.000000
1820.000000	6.257456	-0.817283	100.000000
1821.000000	6.260958	-0.831335	100.000000
1822.000000	6.264473	-0.807420	100.000000
1823.000000	6.268006	-0.814206	100.000000
1824.000000	6.271567	-0.814309	100.000000
1825.000000	6.275165	-0.828407	100.000000
1826.000000	6.278804	-0.819698	100.000000
1827.000000	6.282491	-0.835320	100.000000
1828.000000	6.286229	-0.818378	100.000000
1829.000000	6.290003	-0.818197	100.000000
1830.000000	6.293801	-0.832259	100.000000
1831.000000	6.297613	-0.835416	100.000000
1832.000000	6.301431	-0.821892	100.000000
1833.000000	6.305248	-0.837591	100.000000
1834.000000	6.309050	-0.827297	100.000000
1835.000000	6.312830	-0.817191	100.000000
1836.000000	6.316602	-0.820533	100.000000
1837.000000	6.320383	-0.806850	100.000000
1838.000000	6.324181	-0.810168	100.000000
1839.000000	6.327985	-0.820995	100.000000
1840.000000	6.331798	-0.813902	100.000000
1841.000000	6.335634	-0.814202	100.000000
1842.000000	6.339473	-0.829737	100.000000
1843.000000	6.343316	-0.824571	100.000000
1844.000000	6.347192	-0.809310	100.000000
1845.000000	6.351110	-0.819903	100.000000
1846.000000	6.355072	-0.828559	100.000000
1847.000000	6.359089	-0.820067	100.000000
1848.000000	6.363190	-0.820120	100.000000
1849.000000	6.367381	-0.827223	100.000000
1850.000000	6.371654	-0.822169	100.000000
1851.000000	6.376013	-0.827520	100.000000
1852.000000	6.380461	-0.813865	100.000000
1853.000000	6.384998	-0.826003	100.000000
1854.000000	6.389613	-0.821029	100.000000
1855.000000	6.394302	-0.807532	100.000000
1856.000000	6.399070	-0.810985	100.000000
1857.000000	6.403929	-0.821688	100.000000
1858.000000	6.408869	-0.809756	100.000000
1859.000000	6.413884	-0.813068	100.000000
1860.000000	6.418993	-0.813302	100.000000
1861.000000	6.424203	-0.801243	100.000000
1862.000000	6.429497	-0.791315	100.000000
1863.000000	6.434877	-0.803211	100.000000
1864.000000	6.440357	-0.818877	100.000000
1865.000000	6.445934	-0.791673	100.000000
1866.000000	6.451585	-0.781670	100.000000
1867.000000	6.457293	-0.785451	100.000000
1868.000000	6.463058	-0.800826	100.000000
1869.000000	6.468884	-0.792381	100.000000
1870.000000	6.474777	-0.790659	100.000000
1871.000000	6.480755	-0.767194	100.000000
1872.000000	6.486819	-0.782329	100.000000
1873.000000	6.492965	-0.782513	100.000000
1874.000000	6.499181	-0.776144	100.000000
1875.000000	6.505448	-0.765633	100.000000
1876.000000	6.511782	-0.778337	100.000000
1877.000000	6.518188	-0.766605	100.000000
1878.000000	6.524655	-0.764828	100.000000
1879.000000	6.531182	-0.758260	100.000000
1880.000000	6.537766	-0.744745	100.000000
1881.000000	6.544419	-0.760281	100.000000
1882.000000	6.551160	-0.758645	100.000000
1883.000000	6.557988	-0.752319	100.000000
1884.000000	6.564890	-0.724948	100.000000
1885.000000	6.571865	-0.755796	100.000000
1886.000000	6.578913	-0.732378	100.000000
1887.000000	6.586012	-0.732483	100.000000
1888.000000	6.593156	-0.732469	100.000000
1889.000000	6.600349	-0.736166	100.000000
1890.000000	6.607578	-0.724289	100.000000
1891.000000	6.614840	-0.729668	100.000000
1892.000000	6.622145	-0.728122	100.000000
1893.000000	6.629499	-0.719754	100.000000
1894.000000	6.636892	-0.702835	100.000000
1895.000000	6.644314	-0.710022	100.000000
1896.000000	6.651750	-0.735898	100.000000
1897.000000	6.659193	-0.712191	100.000000
1898.000000	6.666649	-0.715608	100.000000
1899.000000	6.674121	-0.705542	100.000000
1900.000000	6.681605	-0.706003	100.000000
1901.000000	6.689099	-0.719922	100.000000
1902.000000	6.696591	-0.708164	100.000000
1903.000000	6.704068	-0.687638	100.000000
1904.000000	6.711545	-0.694786	100.000000
1905.000000	6.719036	-0.694998	100.000000
1906.000000	6.726538	-0.698588	100.000000
1907.000000	6.734058	-0.705595	100.000000
1908.000000	6.741601	-0.687063	100.000000
1909.000000	6.749152	-0.693869	100.000000
1910.000000	6.756713	-0.678630	100.000000
1911.000000	6.764300	-0.682476	100.000000
1912.000000	6.771909	-0.675715	100.000000
1913.000000	6.779531	-0.674231	100.000000
1914.000000	6.787170	-0.681224	100.000000
1915.000000	6.794843	-0.684866	100.000000
1916.000000	6.802555	-0.674932	100.000000
1917.000000	6.810305	-0.675039	100.000000
1918.000000	6.818087	-0.668483	100.000000
1919.000000	6.825895	-0.677018	100.000000
1920.000000	6.833722	-0.668797	100.000000
1921.000000	6.841551	-0.667247	100.000000
1922.000000	6.849367	-0.652132	100.000000
1923.000000	6.857164	-0.657459	100.000000
1924.000000	6.864940	-0.678173	100.000000
1925.000000	6.872685	-0.654339	100.000000
1926.000000	6.880391	-0.651308	100.000000
1927.000000	6.888060	-0.644605	100.000000
1928.000000	6.895689	-0.656772	100.000000
1929.000000	6.903272	-0.648430	100.000000
1930.000000	6.910809	-0.636688	100.000000
1931.000000	6.918298	-0.640092	100.000000
1932.000000	6.925746	-0.639003	100.000000
1933.000000	6.933162	-0.649408	100.000000
1934.000000	6.940544	-0.644292	100.000000
1935.000000	6.947880	-0.644459	100.000000
1936.000000	6.955172	-0.618898	100.000000
1937.000000	6.962437	-0.626029	100.000000
1938.000000	6.969687	-0.617872	100.000000
1939.000000	6.976900	-0.628365	100.000000
1940.000000	6.984059	-0.618092	100.000000
1941.000000	6.991177	-0.608144	100.000000
1942.000000	6.998276	-0.603407	100.000000
1943.000000	7.005360	-0.598428	100.000000
1944.000000	7.012433	-0.600400	100.000000
1945.000000	7.019499	-0.592090	100.000000
1946.000000	7.026559	-0.590434	100.000000
1947.000000	7.033615	-0.590846	100.000000
1948.000000	7.040672	-0.594325	100.000000
1949.000000	7.047743	-0.587701	100.000000
1950.000000	7.054827	-0.584546	100.000000
1951.000000	7.061908	-0.586445	100.000000
1952.000000	7.068991	-0.583400	100.000000
1953.000000	7.076079	-0.588754	100.000000
1954.000000	7.083165	-0.583675	100.000000
1955.000000	7.090243	-0.589139	100.000000
1956.000000	7.097310	-0.567149	100.000000
1957.000000	7.104364	-0.576097	100.000000
1958.000000	7.111390	-0.567661	100.000000
1959.000000	7.118383	-0.564474	100.000000
1960.000000	7.125353	-0.566150	100.000000
1961.000000	7.132297	-0.551160	100.000000
1962.000000	7.139214	-0.556518	100.000000
1963.000000	7.146107	-0.551620	100.000000
1964.000000	7.152972	-0.543293	100.000000
1965.000000	7.159807	-0.539955	100.000000
1966.000000	7.166619	-0.542042	100.000000
1967.000000	7.173411	-0.536982	100.000000
1968.000000	7.180173	-0.549319	100.000000
1969.000000	7.186885	-0.542534	100.000000
1970.000000	7.193541	-0.535865	100.000000
1971.000000	7.200150	-0.524337	100.000000
1972.000000	7.206714	-0.533039	100.000000
1973.000000	7.213229	-0.528119	100.000000
1974.000000	7.219686	-0.524785	100.000000
1975.000000	7.226091	-0.528385	100.000000
1976.000000	7.232448	-0.525272	100.000000
1977.000000	7.238738	-0.513390	100.000000
1978.000000	7.244959	-0.498396	100.000000
1979.000000	7.251126	-0.511981	100.000000
1980.000000	7.257250	-0.519138	100.000000
1981.000000	7.263333	-0.512257	100.000000
1982.000000	7.269372	-0.529662	100.000000
1983.000000	7.275369	-0.509249	100.000000
1984.000000	7.281324	-0.521613	100.000000
1985.000000	7.287230	-0.514851	100.000000
1986.000000	7.293092	-0.532566	100.000000
1987.000000	7.298920	-0.491610	100.000000
1988.000000	7.304715	-0.520845	100.000000
1989.000000	7.310487	-0.492130	100.000000
1990.000000	7.316251	-0.502477	100.000000
1991.000000	7.322020	-0.492368	100.000000
1992.000000	7.327806	-0.478810	100.000000
1993.000000	7.333611	-0.491160	100.000000
1994.000000	7.339437	-0.479467	100.000000
1995.000000	7.345305	-0.488085	100.000000
1996.000000	7.351242	-0.480009	100.000000
1997.000000	7.357250	-0.481760	100.000000
1998.000000	7.363314	-0.465007	100.000000
1999.000000	7.369426	-0.465246	100.000000
2000.000000	7.375598	-0.460215	100.000000
2001.000000	7.381843	-0.453621	100.000000
2002.000000	7.388160	-0.469436	100.000000
2003.000000	7.394539	-0.466211	100.000000
2004.000000	7.400974	-0.464629	100.000000
2005.000000	7.407472	-0.451130	100.000000
2006.000000	7.414037	-0.447905	100.000000
2007.000000	7.420661	-0.453356	100.000000
2008.000000	7.427320	-0.439975	100.000000
2009.000000	7.433984	-0.445320	100.000000
2010.000000	7.440665	-0.446907	100.000000
2011.000000	7.447380	-0.435282	100.000000
2012.000000	7.454123	-0.413064	100.000000
2013.000000	7.460888	-0.433993	100.000000
2014.000000	7.467673	-0.435613	100.000000
2015.000000	7.474482	-0.420811	100.000000
2016.000000	7.481314	-0.420793	100.000000
2017.000000	7.488152	-0.428120	100.000000
2018.000000	7.494983	-0.429860	100.000000
2019.000000	7.501797	-0.395866	100.000000
2020.000000	7.508593	-0.414743	100.000000
2021.000000	7.515379	-0.408327	100.000000
2022.000000	7.522166	-0.417020	100.000000
2023.000000	7.528958	-0.388402	100.000000
2024.000000	7.535744	-0.402110	100.000000
2025.000000	7.542514	-0.394004	100.000000
2026.000000	7.549266	-0.395872	100.000000
2027.000000	7.555998	-0.385444	100.000000
2028.000000	7.562722	-0.377417	100.000000
2029.000000	7.569460	-0.382793	100.000000
2030.000000	7.576218	-0.386217	100.000000
2031.000000	7.582996	-0.370943	100.000000
2032.000000	7.589798	-0.379806	100.000000
2033.000000	7.596625	-0.366435	100.000000
2034.000000	7.603477	-0.359566	100.000000
2035.000000	7.610360	-0.361565	100.000000
2036.000000	7.617264	-0.346224	100.000000
2037.000000	7.624176	-0.350061	100.000000
2038.000000	7.631100	-0.344788	100.000000
2039.000000	7.638048	-0.322892	100.000000
2040.000000	7.645014	-0.340033	100.000000
2041.000000	7.651981	-0.340364	100.000000
2042.000000	7.658946	-0.330243	100.000000
2043.000000	7.665913	-0.332285	100.000000
2044.000000	7.672879	-0.330569	100.000000
2045.000000	7.679830	-0.329190	100.000000
2046.000000	7.686757	-0.337877	100.000000
2047.000000	7.693669	-0.341607	100.000000
2048.000000	7.700577	-0.327860	100.000000
2049.000000	7.707471	-0.319560	100.000000
2050.000000	7.714332	-0.320986	100.000000
2051.000000	7.721152	-0.316399	100.000000
2052.000000	7.727933	-0.321547	100.000000
2053.000000	7.734681	-0.320319	100.000000
2054.000000	7.741401	-0.309780	100.000000
2055.000000	7.748098	-0.315517	100.000000
2056.000000	7.754771	-0.305210	100.000000
2057.000000	7.761418	-0.298821	100.000000
2058.000000	7.768034	-0.310884	100.000000
2059.000000	7.774610	-0.298913	100.000000
2060.000000	7.781146	-0.288863	100.000000
2061.000000	7.787648	-0.309543	100.000000
2062.000000	7.794116	-0.311659	100.000000
2063.000000	7.800542	-0.292800	100.000000
2064.000000	7.806925	-0.287760	100.000000
2065.000000	7.813270	-0.294777	100.000000
2066.000000	7.819583	-0.277704	100.000000
2067.000000	7.825865	-0.293189	100.000000
2068.000000	7.832109	-0.291617	100.000000
2069.000000	7.838311	-0.290042	100.000000
2070.000000	7.844474	-0.273149	100.000000
2071.000000	7.850592	-0.269747	100.000000
2072.000000	7.856654	-0.280382	100.000000
2073.000000	7.862661	-0.263206	100.000000
2074.000000	7.868624	-0.273558	100.000000
2075.000000	7.874534	-0.275279	100.000000
2076.000000	7.880383	-0.289184	100.000000
2077.000000	7.886181	-0.270450	100.000000
2078.000000	7.891926	-0.273982	100.000000
2079.000000	7.897625	-0.274078	100.000000
2080.000000	7.903279	-0.262248	100.000000
2081.000000	7.908879	-0.284483	100.000000
2082.000000	7.914429	-0.266101	100.000000
2083.000000	7.919923	-0.264201	100.000000
2084.000000	7.925346	-0.254461	100.000000
2085.000000	7.930697	-0.252736	100.000000
2086.000000	7.935981	-0.268305	100.000000
2087.000000	7.941204	-0.258018	100.000000
2088.000000	7.946368	-0.265148	100.000000
2089.000000	7.951467	-0.268376	100.000000
2090.000000	7.956496	-0.256633	100.000000
2091.000000	7.961470	-0.251536	100.000000
2092.000000	7.966396	-0.281049	100.000000
2093.000000	7.971267	-0.279189	100.000000
2094.000000	7.976072	-0.269163	100.000000
2095.000000	7.980811	-0.268919	100.000000
2096.000000	7.985491	-0.260865	100.000000
2097.000000	7.990116	-0.238951	100.000000
2098.000000	7.994679	-0.240575	100.000000
2099.000000	7.999180	-0.245574	100.000000
2100.000000	8.003633	-0.276855	100.000000
2101.000000	8.008038	-0.283807	100.000000
2102.000000	8.012398	-0.252843	100.000000
2103.000000	8.016731	-0.258138	100.000000
2104.000000	8.021044	-0.282273	100.000000
2105.000000	8.025318	-0.268797	100.000000
2106.000000	8.029548	-0.256914	100.000000
2107.000000	8.033750	-0.250054	100.000000
2108.000000	8.037938	-0.270839	100.000000
2109.000000	8.042111	-0.262251	100.000000
2110.000000	8.046261	-0.269407	100.000000
2111.000000	8.050380	-0.240434	100.000000
2112.000000	8.054462	-0.264463	100.000000
2113.000000	8.058509	-0.261073	100.000000
2114.000000	8.062531	-0.249398	100.000000
2115.000000	8.066538	-0.259643	100.000000
2116.000000	8.070519	-0.256380	100.000000
2117.000000	8.074467	-0.259813	100.000000
2118.000000	8.078386	-0.268707	100.000000
2119.000000	8.082274	-0.254808	100.000000
2120.000000	8.086135	-0.270712	100.000000
2121.000000	8.089987	-0.258820	100.000000
2122.000000	8.093837	-0.247072	100.000000
2123.000000	8.097683	-0.262351	100.000000
2124.000000	8.101524	-0.266002	100.000000
2125.000000	8.105358	-0.248893	100.000000
2126.000000	8.109183	-0.283269	100.000000
2127.000000	8.113001	-0.250941	100.000000
2128.000000	8.116811	-0.273314	100.000000
2129.000000	8.120614	-0.245879	100.000000
2130.000000	8.124400	-0.263205	100.000000
2131.000000	8.128148	-0.242798	100.000000
2132.000000	8.131854	-0.253012	100.000000
2133.000000	8.135528	-0.258341	100.000000
2134.000000	8.139173	-0.248177	100.000000
2135.000000	8.142790	-0.258651	100.000000
2136.000000	8.146384	-0.258885	100.000000
2137.000000	8.149945	-0.246593	100.000000
2138.000000	8.153458	-0.258953	100.000000
2139.000000	8.156927	-0.243433	100.000000
2140.000000	8.160356	-0.252364	100.000000
2141.000000	8.163737	-0.257501	100.000000
2142.000000	8.167062	-0.259297	100.000000
2143.000000	8.170340	-0.242149	100.000000
2144.000000	8.173569	-0.245836	100.000000
2145.000000	8.176740	-0.237287	100.000000
2146.000000	8.179864	-0.256484	100.000000
2147.000000	8.182935	-0.230672	100.000000
2148.000000	8.185949	-0.232641	100.000000
2149.000000	8.188922	-0.220730	100.000000
2150.000000	8.191859	-0.253329	100.000000
2151.000000	8.194750	-0.263448	100.000000
2152.000000	8.197594	-0.234779	100.000000
2153.000000	8.200396	-0.234733	100.000000
2154.000000	8.203173	-0.259020	100.000000
2155.000000	8.205937	-0.235178	100.000000
2156.000000	8.208681	-0.257628	100.000000
2157.000000	8.211414	-0.243793	100.000000
2158.000000	8.214147	-0.238924	100.000000
2159.000000	8.216879	-0.230137	100.000000
2160.000000	8.219601	-0.230739	100.000000
2161.000000	8.222318	-0.237646	100.000000
2162.000000	8.225045	-0.231097	100.000000
2163.000000	8.227787	-0.232918	100.000000
2164.000000	8.230542	-0.239786	100.000000
2165.000000	8.233305	-0.234674	100.000000
2166.000000	8.236080	-0.227960	100.000000
2167.000000	8.238869	-0.228171	100.000000
2168.000000	8.241661	-0.238616	100.000000
2169.000000	8.244452	-0.223244	100.000000
2170.000000	8.247236	-0.219812	100.000000
2171.000000	8.249991	-0.207958	100.000000
2172.000000	8.252729	-0.240715	100.000000
2173.000000	8.255465	-0.215197	100.000000
2174.000000	8.258193	-0.227242	100.000000
2175.000000	8.260916	-0.215382	100.000000
2176.000000	8.263638	-0.218909	100.000000
2177.000000	8.266353	-0.196674	100.000000
2178.000000	8.269059	-0.222622	100.000000
2179.000000	8.271752	-0.227844	100.000000
2180.000000	8.274424	-0.221041	100.000000
2181.000000	8.277070	-0.215886	100.000000
2182.000000	8.279685	-0.211000	100.000000
2183.000000	8.282250	-0.217898	100.000000
2184.000000	8.284766	-0.233310	100.000000
2185.000000	8.287248	-0.209215	100.000000
2186.000000	8.289709	-0.218040	100.000000
2187.000000	8.292156	-0.214803	100.000000
2188.000000	8.294590	-0.213109	100.000000
2189.000000	8.297008	-0.233698	100.000000
2190.000000	8.299414	-0.211632	100.000000
2191.000000	8.301808	-0.225369	100.000000
2192.000000	8.304188	-0.213455	100.000000
2193.000000	8.306550	-0.220629	100.000000
2194.000000	8.308875	-0.220826	100.000000
2195.000000	8.311164	-0.217394	100.000000
2196.000000	8.313428	-0.220845	100.000000
2197.000000	8.315654	-0.205571	100.000000
2198.000000	8.317847	-0.221130	100.000000
2199.000000	8.320026	-0.219354	100.000000
2200.000000	8.322188	-0.204142	100.000000
2201.000000	8.324322	-0.216490	100.000000
2202.000000	8.326441	-0.218165	100.000000
2203.000000	8.328562	-0.213048	100.000000
2204.000000	8.330702	-0.208227	100.000000
2205.000000	8.332886	-0.234170	100.000000
2206.000000	8.335133	-0.215620	100.000000
2207.000000	8.337462	-0.205148	100.000000
2208.000000	8.339886	-0.219325	100.000000
2209.000000	8.342410	-0.217997	100.000000
2210.000000	8.345036	-0.206021	100.000000
2211.000000	8.347786	-0.192510	100.000000
2212.000000	8.350663	-0.192665	100.000000
2213.000000	8.353656	-0.196350	100.000000
2214.000000	8.356765	-0.215323	100.000000
2215.000000	8.359979	-0.196508	100.000000
2216.000000	8.363274	-0.195032	100.000000
2217.000000	8.366635	-0.201664	100.000000
2218.000000	8.370032	-0.188361	100.000000
2219.000000	8.373424	-0.193469	100.000000
2220.000000	8.376795	-0.193486	100.000000
2221.000000	8.380141	-0.215860	100.000000
2222.000000	8.383445	-0.188560	100.000000
2223.000000	8.386696	-0.215918	100.000000
2224.000000	8.389892	-0.205754	100.000000
2225.000000	8.393019	-0.197109	100.000000
2226.000000	8.396066	-0.200612	100.000000
2227.000000	8.399035	-0.210908	100.000000
2228.000000	8.401918	-0.192099	100.000000
2229.000000	8.404698	-0.189155	100.000000
2230.000000	8.407379	-0.197426	100.000000
2231.000000	8.409969	-0.204290	100.000000
2232.000000	8.412470	-0.200925	100.000000
2233.000000	8.414899	-0.202709	100.000000
2234.000000	8.417282	-0.184093	100.000000
2235.000000	8.419604	-0.192859	100.000000
2236.000000	8.421841	-0.179445	100.000000
2237.000000	8.424001	-0.214799	100.000000
2238.000000	8.426102	-0.210171	100.000000
2239.000000	8.428159	-0.215704	100.000000
2240.000000	8.430178	-0.177750	100.000000
2241.000000	8.432151	-0.206888	100.000000
2242.000000	8.434079	-0.195091	100.000000
2243.000000	8.435972	-0.193362	100.000000
2244.000000	8.437841	-0.212199	100.000000
2245.000000	8.439692	-0.203637	100.000000
2246.000000	8.441532	-0.202152	100.000000
2247.000000	8.443366	-0.196746	100.000000
2248.000000	8.445195	-0.195332	100.000000
2249.000000	8.447004	-0.204243	100.000000
2250.000000	8.448792	-0.202220	100.000000
2251.000000	8.450572	-0.204044	100.000000
2252.000000	8.452342	-0.188808	100.000000
2253.000000	8.454096	-0.197149	100.000000
2254.000000	8.455846	-0.183647	100.000000
2255.000000	8.457601	-0.209473	100.000000
2256.000000	8.459338	-0.189029	100.000000
2257.000000	8.461056	-0.194149	100.000000
2258.000000	8.462762	-0.199192	100.000000
2259.000000	8.464448	-0.190574	100.000000
2260.000000	8.466122	-0.211321	100.000000
2261.000000	8.467801	-0.201122	100.000000
2262.000000	8.469483	-0.208097	100.000000
2263.000000	8.471159	-0.213088	100.000000
2264.000000	8.472828	-0.201254	100.000000
2265.000000	8.474483	-0.199324	100.000000
2266.000000	8.476120	-0.189540	100.000000
2267.000000	8.477745	-0.187438	100.000000
2268.000000	8.479372	-0.185969	100.000000
2269.000000	8.481016	-0.194419	100.000000
2270.000000	8.482689	-0.198083	100.000000
2271.000000	8.484390	-0.203324	100.000000
2272.000000	8.486113	-0.194944	100.000000
2273.000000	8.487852	-0.210352	100.000000
2274.000000	8.489606	-0.194806	100.000000
2275.000000	8.491378	-0.189710	100.000000
2276.000000	8.493166	-0.203700	100.000000
2277.000000	8.494968	-0.200082	100.000000
2278.000000	8.496792	-0.191923	100.000000
2279.000000	8.498647	-0.222774	100.000000
2280.000000	8.500527	-0.195412	100.000000
2281.000000	8.502436	-0.220917	100.000000
2282.000000	8.504382	-0.199077	100.000000
2283.000000	8.506363	-0.214431	100.000000
2284.000000	8.508380	-0.195574	100.000000
2285.000000	8.510441	-0.197524	100.000000
2286.000000	8.512564	-0.209660	100.000000
2287.000000	8.514773	-0.196036	100.000000
2288.000000	8.517075	-0.196402	100.000000
2289.000000	8.519455	-0.196307	100.000000
2290.000000	8.521907	-0.191334	100.000000
2291.000000	8.524441	-0.201720	100.000000
2292.000000	8.527062	-0.186687	100.000000
2293.000000	8.529769	-0.198531	100.000000
2294.000000	8.532563	-0.177925	100.000000
2295.000000	8.535438	-0.188618	100.000000
2296.000000	8.538395	-0.180033	100.000000
2297.000000	8.541432	-0.164769	100.000000
2298.000000	8.544541	-0.199317	100.000000
2299.000000	8.547731	-0.164971	100.000000
2300.000000	8.551005	-0.189267	100.000000
2301.000000	8.554368	-0.187596	100.000000
2302.000000	8.557826	-0.150095	100.000000
2303.000000	8.561367	-0.182827	100.000000
2304.000000	8.564979	-0.160751	100.000000
2305.000000	8.568671	-0.164111	100.000000
2306.000000	8.572448	-0.150621	100.000000
2307.000000	8.576308	-0.166125	100.000000
2308.000000	8.580246	-0.154382	100.000000
2309.000000	8.584246	-0.166567	100.000000
2310.000000	8.588300	-0.165013	100.000000
2311.000000	8.592406	-0.156624	100.000000
2312.000000	8.596553	-0.153454	100.000000
2313.000000	8.600760	-0.143285	100.000000
2314.000000	8.605056	-0.159086	100.000000
2315.000000	8.609461	-0.145259	100.000000
2316.000000	8.613973	-0.133604	100.000000
2317.000000	8.618568	-0.152361	100.000000
2318.000000	8.623243	-0.140521	100.000000
2319.000000	8.628000	-0.123674	100.000000
2320.000000	8.632832	-0.125372	100.000000
2321.000000	8.637735	-0.124115	100.000000
2322.000000	8.642705	-0.134483	100.000000
2323.000000	8.647736	-0.112277	100.000000
2324.000000	8.652818	-0.112495	100.000000
2325.000000	8.657932	-0.117724	100.000000
2326.000000	8.663063	-0.095796	100.000000
2327.000000	8.668226	-0.114745	100.000000
2328.000000	8.673436	-0.116626	100.000000
2329.000000	8.678697	-0.113472	100.000000
2330.000000	8.684005	-0.110119	100.000000
2331.000000	8.689348	-0.106678	100.000000
2332.000000	8.694717	-0.091590	100.000000
2333.000000	8.700105	-0.096663	100.000000
2334.000000	8.705497	-0.071147	100.000000
2335.000000	8.710874	-0.098795	100.000000
2336.000000	8.716237	-0.079987	100.000000
2337.000000	8.721594	-0.087097	100.000000
2338.000000	8.726940	-0.080506	100.000000
2339.000000	8.732266	-0.070372	100.000000
2340.000000	8.737566	-0.051591	100.000000
2341.000000	8.742845	-0.065351	100.000000
2342.000000	8.748110	-0.051778	100.000000
2343.000000	8.753358	-0.079399	100.000000
2344.000000	8.758595	-0.057171	100.000000
2345.000000	8.763817	-0.053996	100.000000
2346.000000	8.769010	-0.059400	100.000000
2347.000000	8.774177	-0.045646	100.000000
2348.000000	8.779337	-0.039073	100.000000
2349.000000	8.784488	-0.027398	100.000000
2350.000000	8.789606	-0.039747	100.000000
2351.000000	8.794681	-0.043225	100.000000
2352.000000	8.799723	-0.034587	100.000000
2353.000000	8.804751	-0.026284	100.000000
2354.000000	8.809770	-0.025007	100.000000
2355.000000	8.814771	-0.014636	100.000000
2356.000000	8.819770	-0.022007	100.000000
2357.000000	8.824783	-0.003297	100.000000
2358.000000	8.829803	0.003301	100.000000
2359.000000	8.834829	-0.008693	100.000000
2360.000000	8.839877	0.002877	100.000000
2361.000000	8.844958	-0.002357	100.000000
2362.000000	8.850088	0.007661	100.000000
2363.000000	8.855274	0.014481	100.000000
2364.000000	8.860517	0.019372	100.000000
2365.000000	8.865809	0.025804	100.000000
2366.000000	8.871135	0.029013	100.000000
2367.000000	8.876492	0.025464	100.000000
2368.000000	8.881887	0.042231	100.000000
2369.000000	8.887318	0.037135	100.000000
2370.000000	8.892776	0.042024	100.000000
2371.000000	8.898257	0.047152	100.000000
2372.000000	8.903769	0.068997	100.000000
2373.000000	8.909309	0.063896	100.000000
2374.000000	8.914870	0.063322	100.000000
2375.000000	8.920449	0.061558	100.000000
2376.000000	8.926047	0.085285	100.000000
2377.000000	8.931665	0.071753	100.000000
2378.000000	8.937293	0.085061	100.000000
2379.000000	8.942905	0.088497	100.000000
2380.000000	8.948480	0.072767	100.000000
2381.000000	8.954025	0.081243	100.000000
2382.000000	8.959557	0.098185	100.000000
2383.000000	8.965077	0.089639	100.000000
2384.000000	8.970585	0.087673	100.000000
2385.000000	8.976064	0.099467	100.000000
2386.000000	8.981500	0.111328	100.000000
2387.000000	8.986890	0.097639	100.000000
2388.000000	8.992226	0.107816	100.000000
2389.000000	8.997508	0.105940	100.000000
2390.000000	9.002736	0.107300	100.000000
2391.000000	9.007906	0.092155	100.000000
2392.000000	9.013018	0.108956	100.000000
2393.000000	9.018050	0.093537	100.000000
2394.000000	9.022981	0.119072	100.000000
2395.000000	9.027813	0.124075	100.000000
2396.000000	9.032552	0.099829	100.000000
2397.000000	9.037206	0.105085	100.000000
2398.000000	9.041779	0.121965	100.000000
2399.000000	9.046275	0.113476	100.000000
2400.000000	9.050703	0.131948	100.000000
2401.000000	9.055055	0.123529	100.000000
2402.000000	9.059319	0.118255	100.000000
2403.000000	9.063489	0.116122	100.000000
2404.000000	9.067567	0.117908	100.000000
2405.000000	9.071556	0.107838	100.000000
2406.000000	9.075461	0.129700	100.000000
2407.000000	9.079281	0.116176	100.000000
2408.000000	9.083016	0.129788	100.000000
2409.000000	9.086668	0.119467	100.000000
2410.000000	9.090248	0.103892	100.000000
2411.000000	9.093762	0.138242	100.000000
2412.000000	9.097208	0.108928	100.000000
2413.000000	9.100592	0.110695	100.000000
2414.000000	9.103909	0.125796	100.000000
2415.000000	9.107150	0.124368	100.000000
2416.000000	9.110325	0.125982	100.000000
2417.000000	9.113437	0.129110	100.000000
2418.000000	9.116477	0.124074	100.000000
2419.000000	9.119431	0.120710	100.000000
2420.000000	9.122302	0.146359	100.000000
2421.000000	9.125096	0.127488	100.000000
2422.000000	9.127816	0.132274	100.000000
2423.000000	9.130452	0.125295	100.000000
2424.000000	9.132995	0.135437	100.000000
2425.000000	9.135471	0.106618	100.000000
2426.000000	9.137918	0.125116	100.000000
2427.000000	9.140354	0.114852	100.000000
2428.000000	9.142780	0.119811	100.000000
2429.000000	9.145193	0.136966	100.000000
2430.000000	9.147587	0.133151	100.000000
2431.000000	9.149982	0.128295	100.000000
2432.000000	9.152399	0.138166	100.000000
2433.000000	9.154839	0.130861	100.000000
2434.000000	9.157291	0.136299	100.000000
2435.000000	9.159748	0.153529	100.000000
2436.000000	9.162221	0.148285	100.000000
2437.000000	9.164711	0.142736	100.000000
2438.000000	9.167221	0.159941	100.000000
2439.000000	9.169775	0.129234	100.000000
2440.000000	9.172391	0.135725	100.000000
2441.000000	9.175071	0.137588	100.000000
2442.000000	9.177826	0.150763	100.000000
2443.000000	9.180655	0.157747	100.000000
2444.000000	9.183553	0.147242	100.000000
2445.000000	9.186516	0.157579	100.000000
2446.000000	9.189530	0.141878	100.000000
2447.000000	9.192583	0.165853	100.000000
2448.000000	9.195679	0.172614	100.000000
2449.000000	9.198827	0.176018	100.000000
2450.000000	9.202027	0.182529	100.000000
2451.000000	9.205300	0.163886	100.000000
2452.000000	9.208673	0.175423	100.000000
2453.000000	9.212146	0.173742	100.000000
2454.000000	9.215710	0.185343	100.000000
2455.000000	9.219368	0.193909	100.000000
2456.000000	9.223130	0.180033	100.000000
2457.000000	9.227007	0.183380	100.000000
2458.000000	9.231002	0.196824	100.000000
2459.000000	9.235107	0.212087	100.000000
2460.000000	9.239309	0.208757	100.000000
2461.000000	9.243600	0.211880	100.000000
2462.000000	9.247970	0.230683	100.000000
2463.000000	9.252399	0.211687	100.000000
2464.000000	9.256877	0.201338	100.000000
2465.000000	9.261410	0.199570	100.000000
2466.000000	9.266007	0.202656	100.000000
2467.000000	9.270652	0.224923	100.000000
2468.000000	9.275343	0.209619	100.000000
2469.000000	9.280082	0.217849	100.000000
2470.000000	9.284850	0.219404	100.000000
2471.000000	9.289617	0.244853	100.000000
2472.000000	9.294365	0.224484	100.000000
2473.000000	9.299099	0.227673	100.000000
2474.000000	9.303830	0.224140	100.000000
2475.000000	9.308551	0.241223	100.000000
2476.000000	9.313244	0.230673	100.000000
2477.000000	9.317899	0.244345	100.000000
2478.000000	9.322507	0.220329	100.000000
2479.000000	9.327066	0.240940	100.000000
2480.000000	9.331580	0.240742	100.000000
2481.000000	9.336048	0.245740	100.000000
2482.000000	9.340454	0.230095	100.000000
2483.000000	9.344792	0.235057	100.000000
2484.000000	9.349070	0.242032	100.000000
2485.000000	9.353278	0.255647	100.000000
2486.000000	9.357399	0.240160	100.000000
2487.000000	9.361439	0.252126	100.000000
2488.000000	9.365401	0.248577	100.000000
2489.000000	9.369281	0.248446	100.000000
2490.000000	9.373076	0.243333	100.000000
2491.000000	9.376790	0.267193	100.000000
2492.000000	9.380422	0.273920	100.000000
2493.000000	9.383968	0.263672	100.000000
2494.000000	9.387433	0.273618	100.000000
2495.000000	9.390813	0.261638	100.000000
2496.000000	9.394097	0.256409	100.000000
2497.000000	9.397297	0.258153	100.000000
2498.000000	9.400420	0.270007	100.000000
2499.000000	9.403454	0.275045	100.000000
2500.000000	9.406400	0.279883	100.000000
2501.000000	9.409276	0.273429	100.000000
2502.000000	9.412097	0.261109	100.000000
2503.000000	9.414844	0.271552	100.000000
2504.000000	9.417505	0.276371	100.000000
2505.000000	9.420095	0.264220	100.000000
2506.000000	9.422631	0.255513	100.000000
2507.000000	9.425117	0.279789	100.000000
2508.000000	9.427553	0.245056	100.000000
2509.000000	9.429939	0.276041	100.000000
2510.000000	9.432277	0.263847	100.000000
2511.000000	9.434568	0.287699	100.000000
2512.000000	9.436804	0.278729	100.000000
2513.000000	9.438991	0.285815	100.000000
2514.000000	9.441150	0.273758	100.000000
2515.000000	9.443284	0.266667	100.000000
2516.000000	9.445404	0.277081	100.000000
2517.000000	9.447518	0.266630	100.000000
2518.000000	9.449616	0.285234	100.000000
2519.000000	9.451692	0.281858	100.000000
2520.000000	9.453750	0.293740	100.000000
2521.000000	9.455780	0.291978	100.000000
2522.000000	9.457782	0.278149	100.000000
2523.000000	9.459770	0.274643	100.000000
2524.000000	9.461745	0.291573	100.000000
2525.000000	9.463693	0.281570	100.000000
2526.000000	9.465611	0.288188	100.000000
2527.000000	9.467498	0.279719	100.000000
2528.000000	9.469344	0.293151	100.000000
2529.000000	9.471163	0.284696	100.000000
2530.000000	9.472973	0.267402	100.000000
2531.000000	9.474754	0.274236	100.000000
2532.000000	9.476490	0.284487	100.000000
2533.000000	9.478195	0.284191	100.000000
2534.000000	9.479878	0.285939	100.000000
2535.000000	9.481532	0.278933	100.000000
2536.000000	9.483155	0.296007	100.000000
2537.000000	9.484752	0.282332	100.000000
2538.000000	9.486320	0.276922	100.000000
2539.000000	9.487856	0.282242	100.000000
2540.000000	9.489352	0.278647	100.000000
2541.000000	9.490802	0.268512	100.000000
2542.000000	9.492209	0.273481	100.000000
2543.000000	9.493574	0.270269	100.000000
2544.000000	9.494888	0.275289	100.000000
2545.000000	9.496140	0.271747	100.000000
2546.000000	9.497334	0.282092	100.000000
2547.000000	9.498485	0.268360	100.000000
2548.000000	9.499599	0.261618	100.000000
2549.000000	9.500660	0.271752	100.000000
2550.000000	9.501648	0.271672	100.000000
2551.000000	9.502570	0.269930	100.000000
2552.000000	9.503436	0.264817	100.000000
2553.000000	9.504241	0.280507	100.000000
2554.000000	9.504976	0.274936	100.000000
2555.000000	9.505636	0.266475	100.000000
2556.000000	9.506226	0.266548	100.000000
2557.000000	9.506746	0.252855	100.000000
2558.000000	9.507192	0.248248	100.000000
2559.000000	9.507571	0.257929	100.000000
2560.000000	9.507884	0.256346	100.000000
2561.000000	9.508119	0.258157	100.000000
2562.000000	9.508270	0.254699	100.000000
2563.000000	9.508333	0.246361	100.000000
2564.000000	9.508304	0.258193	100.000000
2565.000000	9.508185	0.251437	100.000000
2566.000000	9.507974	0.230845	100.000000
2567.000000	9.507674	0.230878	100.000000
2568.000000	9.507303	0.231006	100.000000
2569.000000	9.506860	0.229340	100.000000
2570.000000	9.506321	0.220709	100.000000
2571.000000	9.505665	0.232823	100.000000
2572.000000	9.504890	0.241461	100.000000
2573.000000	9.504012	0.240011	100.000000
2574.000000	9.503031	0.219298	100.000000
2575.000000	9.501949	0.219370	100.000000
2576.000000	9.500778	0.216055	100.000000
2577.000000	9.499522	0.210952	100.000000
2578.000000	9.498175	0.243270	100.000000
2579.000000	9.496727	0.226530	100.000000
2580.000000	9.495186	0.205834	100.000000
2581.000000	9.493559	0.219859	100.000000
2582.000000	9.491847	0.202591	100.000000
2583.000000	9.490054	0.209502	100.000000
2584.000000	9.488173	0.205908	100.000000
2585.000000	9.486197	0.214915	100.000000
2586.000000	9.484144	0.192529	100.000000
2587.000000	9.482024	0.187338	100.000000
2588.000000	9.479839	0.184175	100.000000
2589.000000	9.477597	0.189400	100.000000
2590.000000	9.475285	0.182603	100.000000
2591.000000	9.472889	0.182543	100.000000
2592.000000	9.470416	0.187627	100.000000
2593.000000	9.467878	0.180938	100.000000
2594.000000	9.465287	0.156818	100.000000
2595.000000	9.462659	0.175926	100.000000
2596.000000	9.459991	0.179322	100.000000
2597.000000	9.457268	0.186348	100.000000
2598.000000	9.454494	0.167622	100.000000
2599.000000	9.451682	0.169139	100.000000
2600.000000	9.448814	0.157348	100.000000
2601.000000	9.445879	0.143637	100.000000
2602.000000	9.442889	0.126823	100.000000
2603.000000	9.439867	0.148765	100.000000
2604.000000	9.436823	0.152346	100.000000
2605.000000	9.433756	0.138607	100.000000
2606.000000	9.430667	0.143928	100.000000
2607.000000	9.427568	0.124975	100.000000
2608.000000	9.424478	0.145807	100.000000
2609.000000	9.421403	0.131998	100.000000
2610.000000	9.418349	0.118370	100.000000
2611.000000	9.415316	0.133522	100.000000
2612.000000	9.412309	0.111461	100.000000
2613.000000	9.409347	0.126939	100.000000
2614.000000	9.406425	0.111512	100.000000
2615.000000	9.403534	0.111357	100.000000
2616.000000	9.400674	0.108292	100.000000
2617.000000	9.397853	0.116575	100.000000
2618.000000	9.395079	0.101315	100.000000
2619.000000	9.392364	0.115126	100.000000
2620.000000	9.389708	0.084098	100.000000
2621.000000	9.387119	0.106332	100.000000
2622.000000	9.384601	0.092929	100.000000
2623.000000	9.382137	0.096132	100.000000
2624.000000	9.379707	0.108189	100.000000
2625.000000	9.377318	0.099675	100.000000
2626.000000	9.374980	0.097906	100.000000
2627.000000	9.372688	0.092658	100.000000
2628.000000	9.370443	0.093132	100.000000
2629.000000	9.368254	0.091130	100.000000
2630.000000	9.366133	0.082635	100.000000
2631.000000	9.364094	0.084305	100.000000
2632.000000	9.362137	0.086113	100.000000
2633.000000	9.360257	0.085961	100.000000
2634.000000	9.358444	0.069010	100.000000
2635.000000	9.356696	0.068525	100.000000
2636.000000	9.355019	0.067179	100.000000
2637.000000	9.353419	0.068662	100.000000
2638.000000	9.351894	0.070497	100.000000
2639.000000	9.350429	0.058229	100.000000
2640.000000	9.349008	0.068649	100.000000
2641.000000	9.347657	0.066866	100.000000
2642.000000	9.346404	0.066753	100.000000
2643.000000	9.345260	0.054570	100.000000
2644.000000	9.344238	0.058039	100.000000
2645.000000	9.343356	0.066282	100.000000
2646.000000	9.342620	0.057925	100.000000
2647.000000	9.342039	0.062736	100.000000
2648.000000	9.341621	0.069699	100.000000
2649.000000	9.341376	0.060917	100.000000
2650.000000	9.341313	0.057491	100.000000
2651.000000	9.341452	0.070956	100.000000
2652.000000	9.341795	0.072507	100.000000
2653.000000	9.342324	0.070626	100.000000
2654.000000	9.343039	0.068931	100.000000
2655.000000	9.343955	0.078984	100.000000
2656.000000	9.345074	0.073989	100.000000
2657.000000	9.346398	0.066723	100.000000
2658.000000	9.347921	0.070237	100.000000
2659.000000	9.349621	0.076652	100.000000
2660.000000	9.351499	0.071657	100.000000
2661.000000	9.353565	0.088425	100.000000
2662.000000	9.355807	0.066393	100.000000
2663.000000	9.358196	0.071097	100.000000
2664.000000	9.360716	0.083235	100.000000
2665.000000	9.363357	0.075919	100.000000
2666.000000	9.366102	0.079438	100.000000
2667.000000	9.368930	0.082668	100.000000
2668.000000	9.371840	0.082585	100.000000
2669.000000	9.374841	0.094157	100.000000
2670.000000	9.377940	0.080459	100.000000
2671.000000	9.381141	0.081979	100.000000
2672.000000	9.384454	0.076778	100.000000
2673.000000	9.387884	0.081448	100.000000
2674.000000	9.391429	0.074722	100.000000
2675.000000	9.395081	0.094956	100.000000
2676.000000	9.398820	0.088013	100.000000
2677.000000	9.402644	0.089555	100.000000
2678.000000	9.406564	0.094387	100.000000
2679.000000	9.410576	0.085736	100.000000
2680.000000	9.414671	0.077172	100.000000
2681.000000	9.418845	0.098968	100.000000
2682.000000	9.423078	0.090407	100.000000
2683.000000	9.427355	0.095327	100.000000
2684.000000	9.431668	0.088194	100.000000
2685.000000	9.436020	0.096751	100.000000
2686.000000	9.440417	0.093237	100.000000
2687.000000	9.444846	0.111680	100.000000
2688.000000	9.449307	0.094492	100.000000
2689.000000	9.453802	0.102920	100.000000
2690.000000	9.458317	0.109717	100.000000
2691.000000	9.462839	0.111212	100.000000
2692.000000	9.467377	0.104289	100.000000
2693.000000	9.471955	0.109190	100.000000
2694.000000	9.476577	0.112838	100.000000
2695.000000	9.481242	0.115671	100.000000
2696.000000	9.485942	0.112254	100.000000
2697.000000	9.490665	0.139546	100.000000
2698.000000	9.495396	0.110300	100.000000
2699.000000	9.500137	0.130454	100.000000
2700.000000	9.504876	0.128918	100.000000
2701.000000	9.509593	0.131932	100.000000
2702.000000	9.514284	0.138788	100.000000
2703.000000	9.518943	0.140186	100.000000
2704.000000	9.523553	0.129983	100.000000
2705.000000	9.528114	0.134638	100.000000
2706.000000	9.532640	0.133209	100.000000
2707.000000	9.537132	0.141576	100.000000
2708.000000	9.541595	0.136311	100.000000
2709.000000	9.546034	0.143126	100.000000
2710.000000	9.550445	0.148098	100.000000
2711.000000	9.554814	0.158242	100.000000
2712.000000	9.559154	0.149599	100.000000
2713.000000	9.563489	0.162953	100.000000
2714.000000	9.567803	0.151010	100.000000
2715.000000	9.572071	0.162861	100.000000
2716.000000	9.576286	0.148994	100.000000
2717.000000	9.580448	0.169727	100.000000
2718.000000	9.584562	0.155851	100.000000
2719.000000	9.588633	0.166014	100.000000
2720.000000	9.592661	0.176084	100.000000
2721.000000	9.596640	0.170960	100.000000
2722.000000	9.600580	0.174218	100.000000
2723.000000	9.604479	0.161922	100.000000
2724.000000	9.608338	0.172293	100.000000
2725.000000	9.612174	0.173918	100.000000
2726.000000	9.615988	0.166708	100.000000
2727.000000	9.619767	0.175448	100.000000
2728.000000	9.623509	0.170292	100.000000
2729.000000	9.627223	0.169762	100.000000
2730.000000	9.630913	0.173169	100.000000
2731.000000	9.634587	0.187096	100.000000
2732.000000	9.638256	0.198821	100.000000
2733.000000	9.641918	0.200514	100.000000
2734.000000	9.645579	0.182971	100.000000
2735.000000	9.649249	0.189799	100.000000
2736.000000	9.652924	0.199642	100.000000
2737.000000	9.656602	0.208524	100.000000
2738.000000	9.660297	0.187617	100.000000
2739.000000	9.664025	0.191221	100.000000
2740.000000	9.667785	0.202910	100.000000
2741.000000	9.671567	0.184035	100.000000
2742.000000	9.675365	0.211502	100.000000
2743.000000	9.679178	0.209592	100.000000
2744.000000	9.682999	0.219510	100.000000
2745.000000	9.686823	0.224686	100.000000
2746.000000	9.690644	0.231682	100.000000
2747.000000	9.694457	0.222667	100.000000
2748.000000	9.698249	0.219143	100.000000
2749.000000	9.702015	0.207167	100.000000
2750.000000	9.705767	0.209131	100.000000
2751.000000	9.709509	0.227694	100.000000
2752.000000	9.713225	0.227548	100.000000
2753.000000	9.716896	0.234257	100.000000
2754.000000	9.720512	0.225842	100.000000
2755.000000	9.724067	0.227319	100.000000
2756.000000	9.727555	0.218791	100.000000
2757.000000	9.730982	0.232291	100.000000
2758.000000	9.734367	0.225465	100.000000
2759.000000	9.737717	0.211943	100.000000
2760.000000	9.741026	0.223400	100.000000
2761.000000	9.744307	0.233871	100.000000
2762.000000	9.747571	0.228567	100.000000
2763.000000	9.750798	0.233545	100.000000
2764.000000	9.753977	0.230090	100.000000
2765.000000	9.757145	0.233377	100.000000
2766.000000	9.760316	0.255649	100.000000
2767.000000	9.763465	0.241940	100.000000
2768.000000	9.766587	0.227878	100.000000
2769.000000	9.769691	0.231308	100.000000
2770.000000	9.772782	0.248439	100.000000
2771.000000	9.775859	0.230895	100.000000
2772.000000	9.778911	0.229187	100.000000
2773.000000	9.781949	0.222445	100.000000
2774.000000	9.785003	0.232493	100.000000
2775.000000	9.788070	0.244608	100.000000
2776.000000	9.791115	0.257845	100.000000
2777.000000	9.794117	0.237288	100.000000
2778.000000	9.797094	0.232262	100.000000
2779.000000	9.800073	0.244225	100.000000
2780.000000	9.803072	0.259594	100.000000
2781.000000	9.806077	0.261139	100.000000
2782.000000	9.809073	0.259465	100.000000
2783.000000	9.812065	0.231829	100.000000
2784.000000	9.815063	0.247185	100.000000
2785.000000	9.818068	0.264349	100.000000
2786.000000	9.821071	0.260763	100.000000
2787.000000	9.824058	0.257281	100.000000
2788.000000	9.827020	0.257156	100.000000
2789.000000	9.829975	0.236712	100.000000
2790.000000	9.832932	0.258841	100.000000
2791.000000	9.835882	0.251735	100.000000
2792.000000	9.838828	0.253501	100.000000
2793.000000	9.841776	0.244798	100.000000
2794.000000	9.844728	0.251936	100.000000
2795.000000	9.847688	0.248170	100.000000
2796.000000	9.850643	0.261465	100.000000
2797.000000	9.853586	0.259893	100.000000
2798.000000	9.856523	0.259618	100.000000
2799.000000	9.859454	0.246048	100.000000
2800.000000	9.862384	0.259789	100.000000
2801.000000	9.865323	0.263231	100.000000
2802.000000	9.868262	0.247470	100.000000
2803.000000	9.871190	0.257872	100.000000
2804.000000	9.874106	0.250964	100.000000
2805.000000	9.877003	0.249312	100.000000
2806.000000	9.879875	0.247465	100.000000
2807.000000	9.882716	0.245953	100.000000
2808.000000	9.885527	0.221588	100.000000
2809.000000	9.888308	0.237024	100.000000
2810.000000	9.891064	0.250857	100.000000
2811.000000	9.893803	0.250674	100.000000
2812.000000	9.896533	0.236832	100.000000
2813.000000	9.899257	0.233240	100.000000
2814.000000	9.901979	0.236915	100.000000
2815.000000	9.904713	0.238307	100.000000
2816.000000	9.907468	0.238247	100.000000
2817.000000	9.910243	0.236490	100.000000
2818.000000	9.913040	0.261910	100.000000
2819.000000	9.915852	0.234726	100.000000
2820.000000	9.918674	0.234608	100.000000
2821.000000	9.921498	0.226084	100.000000
2822.000000	9.924321	0.217467	100.000000
2823.000000	9.927151	0.236320	100.000000
2824.000000	9.929997	0.237779	100.000000
2825.000000	9.932860	0.242814	100.000000
2826.000000	9.935741	0.253150	100.000000
2827.000000	9.938631	0.244430	100.000000
2828.000000	9.941522	0.251128	100.000000
2829.000000	9.944411	0.246176	100.000000
2830.000000	9.947294	0.245963	100.000000
2831.000000	9.950180	0.242484	100.000000
2832.000000	9.953067	0.245477	100.000000
2833.000000	9.955940	0.238947	100.000000
2834.000000	9.958815	0.248847	100.000000
2835.000000	9.961708	0.256080	100.000000
2836.000000	9.964592	0.255608	100.000000
2837.000000	9.967430	0.264492	100.000000
2838.000000	9.970212	0.259223	100.000000
2839.000000	9.972943	0.255866	100.000000
2840.000000	9.975631	0.259013	100.000000
2841.000000	9.978284	0.252079	100.000000
2842.000000	9.980909	0.252084	100.000000
2843.000000	9.983509	0.260735	100.000000
2844.000000	9.986084	0.272593	100.000000
2845.000000	9.988636	0.262281	100.000000
2846.000000	9.991173	0.270659	100.000000
