0.000000	-0.261165	-0.003528	7.659113
1.000000	-0.259232	-0.006864	7.659113
2.000000	-0.255491	-0.003665	7.659113
3.000000	-0.250183	0.001629	7.659113
4.000000	-0.243529	0.013505	7.659113
5.000000	-0.235748	0.001470	7.659113
6.000000	-0.227044	0.013519	7.659113
7.000000	-0.217596	-0.005393	7.659113
8.000000	-0.207568	0.006665	7.659113
9.000000	-0.197110	-0.007029	7.659113
10.000000	-0.186348	0.001518	7.659113
11.000000	-0.175400	0.017090	7.659113
12.000000	-0.164382	-0.003490	7.659113
13.000000	-0.153390	-4.129269E-5	7.659113
14.000000	-0.142502	-0.005150	7.659113
15.000000	-0.131802	-0.005140	7.659113
16.000000	-0.121371	-0.005159	7.659113
17.000000	-0.111274	-0.001730	7.659113
18.000000	-0.101556	-0.001860	7.659113
19.000000	-0.092250	0.020654	7.659113
20.000000	-0.083369	0.003163	7.659113
21.000000	-0.074903	-0.001974	7.659113
22.000000	-0.066848	0.013494	7.659113
23.000000	-0.059228	0.001519	7.659113
24.000000	-0.052072	0.008577	7.659113
25.000000	-0.045383	-0.005221	7.659113
26.000000	-0.039143	0.018814	7.659113
27.000000	-0.033348	-0.012002	7.659113
28.000000	-0.028003	6.928606E-5	7.659113
29.000000	-0.023088	-0.003477	7.659113
30.000000	-0.018587	-0.000285	7.659113
31.000000	-0.014494	0.003238	7.659113
32.000000	-0.010794	0.003365	7.659113
33.000000	-0.007458	0.006585	7.659113
34.000000	-0.004457	0.006849	7.659113
35.000000	-0.001764	0.006506	7.659113
36.000000	0.000643	-0.022393	7.659113
37.000000	0.002791	0.011963	7.659113
38.000000	0.004698	0.001782	7.659113
39.000000	0.006364	-0.008398	7.659113
40.000000	0.007794	-0.003554	7.659113
41.000000	0.009004	0.003505	7.659113
42.000000	0.009992	0.003470	7.659113
43.000000	0.010745	-0.008538	7.659113
44.000000	0.011269	4.768804E-5	7.659113
45.000000	0.011600	-0.015666	7.659113
46.000000	0.011785	-0.003644	7.659113
47.000000	0.011841	-0.000279	7.659113
48.000000	0.011780	0.009980	7.659113
49.000000	0.011645	-0.005256	7.659113
50.000000	0.011477	0.003445	7.659113
51.000000	0.011279	0.003390	7.659113
52.000000	0.011035	-0.003533	7.659113
53.000000	0.010741	-0.006970	7.659113
54.000000	0.010402	-0.001797	7.659113
55.000000	0.010017	0.013668	7.659113
56.000000	0.009593	-0.008653	7.659113
57.000000	0.009141	-0.003793	7.659113
58.000000	0.008685	-6.890301E-6	7.659113
59.000000	0.008242	-0.002101	7.659113
60.000000	0.007815	-0.005271	7.659113
61.000000	0.007407	0.010128	7.659113
62.000000	0.007022	0.005060	7.659113
63.000000	0.006660	0.005023	7.659113
64.000000	0.006321	0.001627	7.659113
65.000000	0.005999	0.001855	7.659113
66.000000	0.005679	-0.011851	7.659113
67.000000	0.005343	-0.003363	7.659113
68.000000	0.004990	-0.001514	7.659113
69.000000	0.004633	-0.003327	7.659113
70.000000	0.004274	0.003486	7.659113
71.000000	0.003917	-0.011978	7.659113
72.000000	0.003571	0.015187	7.659113
73.000000	0.003241	-0.001648	7.659113
74.000000	0.002937	-0.005461	7.659113
75.000000	0.002666	-0.003484	7.659113
76.000000	0.002428	-0.024128	7.659113
77.000000	0.002218	0.003377	7.659113
78.000000	0.002033	0.013658	7.659113
79.000000	0.001877	0.001778	7.659113
80.000000	0.001751	-0.008370	7.659113
81.000000	0.001645	-0.013624	7.659113
82.000000	0.001546	-5.104698E-5	7.659113
83.000000	0.001439	-0.003703	7.659113
84.000000	0.001327	-0.001843	7.659113
85.000000	0.001217	-0.002020	7.659113
86.000000	0.001111	0.018895	7.659113
87.000000	0.001015	0.004952	7.659113
88.000000	0.000950	0.011990	7.659113
89.000000	0.000917	0.008755	7.659113
90.000000	0.000899	0.006827	7.659113
91.000000	0.000898	0.003746	7.659113
92.000000	0.000918	0.003597	7.659113
93.000000	0.000945	-0.003313	7.659113
94.000000	0.000979	0.005151	7.659113
95.000000	0.001026	-0.003636	7.659113
96.000000	0.001069	-0.003763	7.659113
97.000000	0.001093	-0.003581	7.659113
98.000000	0.001109	0.008317	7.659113
99.000000	0.001137	0.010202	7.659113
100.000000	0.001187	0.008428	7.659113
101.000000	0.001253	-0.015440	7.659113
102.000000	0.001332	0.012151	7.659113
103.000000	0.001421	-0.003335	7.659113
104.000000	0.001505	-0.005211	7.659113
105.000000	0.001568	-0.007256	7.659113
106.000000	0.001627	-0.007144	7.659113
107.000000	0.001691	0.004864	7.659113
108.000000	0.001748	-0.001851	7.659113
109.000000	0.001785	0.013246	7.659113
110.000000	0.001804	-0.000546	7.659113
111.000000	0.001833	0.020242	7.659113
112.000000	0.001884	0.008429	7.659113
113.000000	0.001934	0.018742	7.659113
114.000000	0.001971	-0.000171	7.659113
115.000000	0.002015	0.022222	7.659113
116.000000	0.002065	-0.010499	7.659113
117.000000	0.002110	0.010436	7.659113
118.000000	0.002150	-0.010280	7.659113
119.000000	0.002193	0.001751	7.659113
120.000000	0.002229	-0.003431	7.659113
121.000000	0.002237	0.008275	7.659113
122.000000	0.002216	0.003213	7.659113
123.000000	0.002178	0.003345	7.659113
124.000000	0.002133	0.025521	7.659113
125.000000	0.002096	0.004802	7.659113
126.000000	0.002088	-0.000303	7.659113
127.000000	0.002113	0.010144	7.659113
128.000000	0.002175	0.006991	7.659113
129.000000	0.002270	0.022232	7.659113
130.000000	0.002385	-0.001715	7.659113
131.000000	0.002494	-0.003475	7.659113
132.000000	0.002577	0.001597	7.659113
133.000000	0.002637	0.003425	7.659113
134.000000	0.002667	-0.005301	7.659113
135.000000	0.002661	0.005140	7.659113
136.000000	0.002630	-0.000111	7.659113
137.000000	0.002591	0.003191	7.659113
138.000000	0.002548	0.020431	7.659113
139.000000	0.002508	0.004801	7.659113
140.000000	0.002488	-0.001794	7.659113
141.000000	0.002490	-0.003618	7.659113
142.000000	0.002508	0.010279	7.659113
143.000000	0.002540	0.015442	7.659113
144.000000	0.002578	0.025489	7.659113
145.000000	0.002615	0.005128	7.659113
146.000000	0.002637	-0.005076	7.659113
147.000000	0.002627	-0.003594	7.659113
148.000000	0.002586	0.020204	7.659113
149.000000	0.002540	-0.010270	7.659113
150.000000	0.002503	0.001369	7.659113
151.000000	0.002476	-0.015440	7.659113
152.000000	0.002457	0.020100	7.659113
153.000000	0.002449	-0.008715	7.659113
154.000000	0.002459	0.006796	7.659113
155.000000	0.002487	0.003094	7.659113
156.000000	0.002536	0.012002	7.659113
157.000000	0.002602	0.005139	7.659113
158.000000	0.002684	0.037733	7.659113
159.000000	0.002778	0.019002	7.659113
160.000000	0.002871	0.011873	7.659113
161.000000	0.002958	0.008667	7.659113
162.000000	0.003030	0.005160	7.659113
163.000000	0.003063	0.001588	7.659113
164.000000	0.003048	0.022123	7.659113
165.000000	0.003005	0.004964	7.659113
166.000000	0.002963	-0.010528	7.659113
167.000000	0.002932	0.016928	7.659113
168.000000	0.002915	0.015340	7.659113
169.000000	0.002911	0.006704	7.659113
170.000000	0.002914	0.013710	7.659113
171.000000	0.002933	0.012025	7.659113
172.000000	0.002973	0.005239	7.659113
173.000000	0.003021	0.005271	7.659113
174.000000	0.003067	0.012092	7.659113
175.000000	0.003098	0.001785	7.659113
176.000000	0.003109	0.015243	7.659113
177.000000	0.003095	0.005031	7.659113
178.000000	0.003051	0.008435	7.659113
179.000000	0.002987	0.006465	7.659113
180.000000	0.002924	-0.000510	7.659113
181.000000	0.002883	-0.005212	7.659113
182.000000	0.002870	0.003229	7.659113
183.000000	0.002874	0.016934	7.659113
184.000000	0.002898	0.008441	7.659113
185.000000	0.002933	0.011933	7.659113
186.000000	0.002964	0.013702	7.659113
187.000000	0.002985	0.010305	7.659113
188.000000	0.002985	-0.001991	7.659113
189.000000	0.002953	-0.001623	7.659113
190.000000	0.002896	-0.010556	7.659113
191.000000	0.002826	-0.022902	7.659113
192.000000	0.002752	0.003234	7.659113
193.000000	0.002678	0.016853	7.659113
194.000000	0.002619	0.010159	7.659113
195.000000	0.002582	0.003146	7.659113
196.000000	0.002560	0.011858	7.659113
197.000000	0.002548	0.008645	7.659113
198.000000	0.002541	0.003486	7.659113
199.000000	0.002538	0.013801	7.659113
200.000000	0.002541	0.006722	7.659113
201.000000	0.002539	0.008317	7.659113
202.000000	0.002518	0.003486	7.659113
203.000000	0.002463	0.003295	7.659113
204.000000	0.002366	0.011819	7.659113
205.000000	0.002240	0.001599	7.659113
206.000000	0.002109	0.001272	7.659113
207.000000	0.002000	0.013665	7.659113
208.000000	0.001914	0.011885	7.659113
209.000000	0.001840	0.001660	7.659113
210.000000	0.001775	0.008717	7.659113
211.000000	0.001713	0.011685	7.659113
212.000000	0.001645	0.033896	7.659113
213.000000	0.001577	0.016812	7.659113
214.000000	0.001511	-0.006969	7.659113
215.000000	0.001444	-0.006856	7.659113
216.000000	0.001363	-0.010455	7.659113
217.000000	0.001256	-0.005559	7.659113
218.000000	0.001135	0.016843	7.659113
219.000000	0.001018	0.008249	7.659113
220.000000	0.000918	0.006570	7.659113
221.000000	0.000840	0.011626	7.659113
222.000000	0.000774	0.008316	7.659113
223.000000	0.000721	-0.008806	7.659113
224.000000	0.000692	-0.006847	7.659113
225.000000	0.000694	0.003391	7.659113
226.000000	0.000706	0.017196	7.659113
227.000000	0.000710	0.004869	7.659113
228.000000	0.000706	-0.008701	7.659113
229.000000	0.000697	0.006592	7.659113
230.000000	0.000674	0.010023	7.659113
231.000000	0.000631	-0.007251	7.659113
232.000000	0.000577	0.008275	7.659113
233.000000	0.000529	0.003167	7.659113
234.000000	0.000494	0.011929	7.659113
235.000000	0.000478	0.025574	7.659113
236.000000	0.000491	0.001655	7.659113
237.000000	0.000524	0.015347	7.659113
238.000000	0.000559	0.008360	7.659113
239.000000	0.000588	0.006755	7.659113
240.000000	0.000596	0.003450	7.659113
241.000000	0.000567	0.005153	7.659113
242.000000	0.000496	-0.003575	7.659113
243.000000	0.000391	0.006576	7.659113
244.000000	0.000278	0.003159	7.659113
245.000000	0.000177	0.013251	7.659113
246.000000	9.402893E-5	0.016880	7.659113
247.000000	3.629675E-5	0.015273	7.659113
248.000000	4.542962E-6	0.011861	7.659113
249.000000	-4.628967E-6	0.005216	7.659113
250.000000	-4.974280E-6	-0.013783	7.659113
251.000000	-1.401253E-5	0.003237	7.659113
252.000000	-4.235623E-5	0.003310	7.659113
253.000000	-9.944446E-5	-0.010701	7.659113
254.000000	-0.000179	-0.000317	7.659113
255.000000	-0.000265	-0.005772	7.659113
256.000000	-0.000347	0.001444	7.659113
257.000000	-0.000413	0.020318	7.659113
258.000000	-0.000443	0.030902	7.659113
259.000000	-0.000435	0.001519	7.659113
260.000000	-0.000394	0.015189	7.659113
261.000000	-0.000335	0.013608	7.659113
262.000000	-0.000276	0.010389	7.659113
263.000000	-0.000220	0.022071	7.659113
264.000000	-0.000190	-0.015516	7.659113
265.000000	-0.000205	0.008399	7.659113
266.000000	-0.000259	-0.003589	7.659113
267.000000	-0.000330	0.004969	7.659113
268.000000	-0.000405	0.023985	7.659113
269.000000	-0.000473	0.018513	7.659113
270.000000	-0.000523	0.042155	7.659113
271.000000	-0.000558	0.005135	7.659113
272.000000	-0.000593	0.008558	7.659113
273.000000	-0.000609	0.018812	7.659113
274.000000	-0.000590	0.005178	7.659113
275.000000	-0.000576	-0.003587	7.659113
276.000000	-0.000592	-0.000148	7.659113
277.000000	-0.000646	-0.009005	7.659113
278.000000	-0.000727	-0.000371	7.659113
279.000000	-0.000826	0.003187	7.659113
280.000000	-0.000937	0.003032	7.659113
281.000000	-0.001044	0.011706	7.659113
282.000000	-0.001132	0.006382	7.659113
283.000000	-0.001202	-0.001884	7.659113
284.000000	-0.001253	0.027313	7.659113
285.000000	-0.001284	0.013424	7.659113
286.000000	-0.001315	-0.003559	7.659113
287.000000	-0.001356	-0.001910	7.659113
288.000000	-0.001385	0.008348	7.659113
289.000000	-0.001393	-0.001820	7.659113
290.000000	-0.001411	0.004991	7.659113
291.000000	-0.001460	0.013512	7.659113
292.000000	-0.001541	-0.001936	7.659113
293.000000	-0.001634	0.016669	7.659113
294.000000	-0.001718	0.001377	7.659113
295.000000	-0.001791	0.020241	7.659113
296.000000	-0.001844	0.003301	7.659113
297.000000	-0.001867	0.018487	7.659113
298.000000	-0.001868	0.003269	7.659113
299.000000	-0.001857	0.008566	7.659113
300.000000	-0.001833	0.022103	7.659113
301.000000	-0.001805	0.013482	7.659113
302.000000	-0.001797	-0.005417	7.659113
303.000000	-0.001825	0.003400	7.659113
304.000000	-0.001883	0.013514	7.659113
305.000000	-0.001968	-0.001919	7.659113
306.000000	-0.002078	0.008287	7.659113
307.000000	-0.002184	0.013229	7.659113
308.000000	-0.002255	0.011959	7.659113
309.000000	-0.002293	0.010137	7.659113
310.000000	-0.002303	0.027090	7.659113
311.000000	-0.002292	0.015348	7.659113
312.000000	-0.002272	0.013795	7.659113
313.000000	-0.002254	0.015110	7.659113
314.000000	-0.002255	-1.646849E-5	7.659113
315.000000	-0.002294	-0.012369	7.659113
316.000000	-0.002348	0.006525	7.659113
317.000000	-0.002389	0.008221	7.659113
318.000000	-0.002413	0.015013	7.659113
319.000000	-0.002415	0.011658	7.659113
320.000000	-0.002387	0.018616	7.659113
321.000000	-0.002319	0.023787	7.659113
322.000000	-0.002210	0.001434	7.659113
323.000000	-0.002088	0.008490	7.659113
324.000000	-0.001973	0.005198	7.659113
325.000000	-0.001894	-0.001972	7.659113
326.000000	-0.001858	0.004823	7.659113
327.000000	-0.001845	-0.008953	7.659113
328.000000	-0.001835	0.004594	7.659113
329.000000	-0.001811	0.004969	7.659113
330.000000	-0.001771	0.001422	7.659113
331.000000	-0.001727	-0.000178	7.659113
332.000000	-0.001683	-0.001816	7.659113
333.000000	-0.001630	0.015118	7.659113
334.000000	-0.001570	0.006819	7.659113
335.000000	-0.001527	-0.010388	7.659113
336.000000	-0.001531	0.003517	7.659113
337.000000	-0.001582	0.013497	7.659113
338.000000	-0.001665	-0.012602	7.659113
339.000000	-0.001777	-0.000187	7.659113
340.000000	-0.001912	0.006542	7.659113
341.000000	-0.002065	0.012974	7.659113
342.000000	-0.002216	0.023647	7.659113
343.000000	-0.002346	0.004806	7.659113
344.000000	-0.002461	-0.001777	7.659113
345.000000	-0.002558	0.013415	7.659113
346.000000	-0.002636	0.010063	7.659113
347.000000	-0.002700	0.019941	7.659113
348.000000	-0.002752	-0.012275	7.659113
349.000000	-0.002802	0.006629	7.659113
350.000000	-0.002865	-0.010473	7.659113
351.000000	-0.002951	0.023870	7.659113
352.000000	-0.003040	-0.001993	7.659113
353.000000	-0.003110	0.006401	7.659113
354.000000	-0.003164	0.006425	7.659113
355.000000	-0.003209	0.003112	7.659113
356.000000	-0.003239	0.008229	7.659113
357.000000	-0.003254	0.015350	7.659113
358.000000	-0.003267	0.011790	7.659113
359.000000	-0.003288	0.011878	7.659113
360.000000	-0.003311	-0.003325	7.659113
361.000000	-0.003337	0.011551	7.659113
362.000000	-0.003376	0.005034	7.659113
363.000000	-0.003442	-0.003590	7.659113
364.000000	-0.003545	-0.015688	7.659113
365.000000	-0.003674	0.015084	7.659113
366.000000	-0.003803	-0.003613	7.659113
367.000000	-0.003918	0.020156	7.659113
368.000000	-0.004012	0.003208	7.659113
369.000000	-0.004087	0.008398	7.659113
370.000000	-0.004157	0.001410	7.659113
371.000000	-0.004220	0.009895	7.659113
372.000000	-0.004284	0.034190	7.659113
373.000000	-0.004378	-0.013883	7.659113
374.000000	-0.004498	-0.000284	7.659113
375.000000	-0.004629	-0.012427	7.659113
376.000000	-0.004789	0.011725	7.659113
377.000000	-0.004993	0.004934	7.659113
378.000000	-0.005210	0.030140	7.659113
379.000000	-0.005391	-0.000177	7.659113
380.000000	-0.005531	0.003064	7.659113
381.000000	-0.005645	-0.005184	7.659113
382.000000	-0.005720	0.001446	7.659113
383.000000	-0.005758	-0.017224	7.659113
384.000000	-0.005778	0.020227	7.659113
385.000000	-0.005791	0.011715	7.659113
386.000000	-0.005811	-0.012331	7.659113
387.000000	-0.005846	-0.007220	7.659113
388.000000	-0.005902	0.001426	7.659113
389.000000	-0.005977	0.004664	7.659113
390.000000	-0.006061	-0.005305	7.659113
391.000000	-0.006145	-0.007434	7.659113
392.000000	-0.006203	0.011634	7.659113
393.000000	-0.006219	0.006434	7.659113
394.000000	-0.006204	-0.009026	7.659113
395.000000	-0.006166	0.018573	7.659113
396.000000	-0.006100	0.004800	7.659113
397.000000	-0.006008	0.008347	7.659113
398.000000	-0.005904	0.004803	7.659113
399.000000	-0.005811	-0.003598	7.659113
400.000000	-0.005739	-0.010513	7.659113
401.000000	-0.005686	-0.003665	7.659113
402.000000	-0.005654	0.008479	7.659113
403.000000	-0.005649	-0.001902	7.659113
404.000000	-0.005666	-0.014105	7.659113
405.000000	-0.005689	0.011643	7.659113
406.000000	-0.005698	0.008043	7.659113
407.000000	-0.005678	0.001306	7.659113
408.000000	-0.005645	0.013416	7.659113
409.000000	-0.005619	0.013436	7.659113
410.000000	-0.005590	0.008430	7.659113
411.000000	-0.005550	-0.003533	7.659113
412.000000	-0.005509	-0.003465	7.659113
413.000000	-0.005480	0.006588	7.659113
414.000000	-0.005471	0.002998	7.659113
415.000000	-0.005480	0.011647	7.659113
416.000000	-0.005503	-0.005400	7.659113
417.000000	-0.005536	-0.003851	7.659113
418.000000	-0.005561	0.018472	7.659113
419.000000	-0.005565	0.018765	7.659113
420.000000	-0.005557	0.004841	7.659113
421.000000	-0.005546	0.015228	7.659113
422.000000	-0.005531	-0.005242	7.659113
423.000000	-0.005526	-0.005308	7.659113
424.000000	-0.005552	-0.010458	7.659113
425.000000	-0.005624	0.009866	7.659113
426.000000	-0.005727	-0.012403	7.659113
427.000000	-0.005825	-0.001995	7.659113
428.000000	-0.005897	0.015013	7.659113
429.000000	-0.005943	-0.002106	7.659113
430.000000	-0.005963	0.004886	7.659113
431.000000	-0.005952	0.001416	7.659113
432.000000	-0.005911	0.008578	7.659113
433.000000	-0.005864	-0.017337	7.659113
434.000000	-0.005839	0.015039	7.659113
435.000000	-0.005841	-0.007213	7.659113
436.000000	-0.005867	-0.007143	7.659113
437.000000	-0.005906	0.004636	7.659113
438.000000	-0.005940	-0.003699	7.659113
439.000000	-0.005953	0.006652	7.659113
440.000000	-0.005927	0.004831	7.659113
441.000000	-0.005855	0.006579	7.659113
442.000000	-0.005747	0.003168	7.659113
443.000000	-0.005626	0.003315	7.659113
444.000000	-0.005503	0.011853	7.659113
445.000000	-0.005385	0.006581	7.659113
446.000000	-0.005297	0.001397	7.659113
447.000000	-0.005252	0.004859	7.659113
448.000000	-0.005236	0.003048	7.659113
449.000000	-0.005223	0.008177	7.659113
450.000000	-0.005192	0.015003	7.659113
451.000000	-0.005133	0.004755	7.659113
452.000000	-0.005049	0.006564	7.659113
453.000000	-0.004943	-0.005430	7.659113
454.000000	-0.004832	0.004970	7.659113
455.000000	-0.004743	-0.008719	7.659113
456.000000	-0.004693	0.003278	7.659113
457.000000	-0.004677	0.015191	7.659113
458.000000	-0.004682	-0.005376	7.659113
459.000000	-0.004710	0.008009	7.659113
460.000000	-0.004745	-0.007350	7.659113
461.000000	-0.004756	-0.009142	7.659113
462.000000	-0.004733	0.023823	7.659113
463.000000	-0.004691	0.011615	7.659113
464.000000	-0.004639	0.003210	7.659113
465.000000	-0.004568	0.010146	7.659113
466.000000	-0.004473	-0.001974	7.659113
467.000000	-0.004377	0.011760	7.659113
468.000000	-0.004302	-0.002061	7.659113
469.000000	-0.004247	-0.000217	7.659113
470.000000	-0.004236	0.006809	7.659113
471.000000	-0.004297	-0.003514	7.659113
472.000000	-0.004406	-0.012327	7.659113
473.000000	-0.004533	-0.001944	7.659113
474.000000	-0.004669	-0.002179	7.659113
475.000000	-0.004795	0.006447	7.659113
476.000000	-0.004896	0.001369	7.659113
477.000000	-0.004962	0.018567	7.659113
478.000000	-0.004996	-0.005397	7.659113
479.000000	-0.005017	0.008380	7.659113
480.000000	-0.005024	-0.000217	7.659113
481.000000	-0.005017	-7.769404E-5	7.659113
482.000000	-0.005017	-0.003713	7.659113
483.000000	-0.005033	-0.001892	7.659113
484.000000	-0.005060	-0.017517	7.659113
485.000000	-0.005084	0.006245	7.659113
486.000000	-0.005086	-0.005440	7.659113
487.000000	-0.005048	0.009821	7.659113
488.000000	-0.004979	0.001490	7.659113
489.000000	-0.004890	0.008435	7.659113
490.000000	-0.004778	-0.010466	7.659113
491.000000	-0.004650	-0.008714	7.659113
492.000000	-0.004522	-0.001991	7.659113
493.000000	-0.004417	-0.008584	7.659113
494.000000	-0.004354	-0.008909	7.659113
495.000000	-0.004331	-0.005276	7.659113
496.000000	-0.004337	-0.003680	7.659113
497.000000	-0.004330	0.006555	7.659113
498.000000	-0.004280	-0.010675	7.659113
499.000000	-0.004205	-0.005570	7.659113
500.000000	-0.004143	-0.010425	7.659113
501.000000	-0.004114	0.001635	7.659113
502.000000	-0.004120	-0.017318	7.659113
503.000000	-0.004157	-0.005233	7.659113
504.000000	-0.004217	-9.763094E-5	7.659113
505.000000	-0.004287	-0.026596	7.659113
506.000000	-0.004360	0.001468	7.659113
507.000000	-0.004429	-0.003923	7.659113
508.000000	-0.004470	-0.008924	7.659113
509.000000	-0.004470	-0.007119	7.659113
510.000000	-0.004454	-0.002015	7.659113
511.000000	-0.004434	0.001651	7.659113
512.000000	-0.004405	-0.012139	7.659113
513.000000	-0.004375	-0.018909	7.659113
514.000000	-0.004358	-0.022483	7.659113
515.000000	-0.004355	-0.003683	7.659113
516.000000	-0.004368	-0.017297	7.659113
517.000000	-0.004401	0.006593	7.659113
518.000000	-0.004438	-0.017450	7.659113
519.000000	-0.004470	-0.018997	7.659113
520.000000	-0.004493	-0.012240	7.659113
521.000000	-0.004497	-0.017245	7.659113
522.000000	-0.004476	-0.020707	7.659113
523.000000	-0.004439	-0.017212	7.659113
524.000000	-0.004401	-0.018912	7.659113
525.000000	-0.004367	-0.022432	7.659113
526.000000	-0.004339	-0.010584	7.659113
527.000000	-0.004320	-0.020790	7.659113
528.000000	-0.004308	-0.032841	7.659113
529.000000	-0.004293	-0.019440	7.659113
530.000000	-0.004264	-0.027696	7.659113
531.000000	-0.004211	-0.020873	7.659113
532.000000	-0.004130	-0.010506	7.659113
533.000000	-0.004030	-0.020679	7.659113
534.000000	-0.003928	-0.029399	7.659113
535.000000	-0.003829	-0.029375	7.659113
536.000000	-0.003727	-0.022323	7.659113
537.000000	-0.003629	-0.036067	7.659113
538.000000	-0.003546	-0.023923	7.659113
539.000000	-0.003491	-0.022475	7.659113
540.000000	-0.003468	-0.032761	7.659113
541.000000	-0.003464	-0.041233	7.659113
542.000000	-0.003457	0.005126	7.659113
543.000000	-0.003436	-0.029279	7.659113
544.000000	-0.003397	-0.032688	7.659113
545.000000	-0.003331	-0.022373	7.659113
546.000000	-0.003213	-0.010464	7.659113
547.000000	-0.003037	-0.037825	7.659113
548.000000	-0.002849	-0.051244	7.659113
549.000000	-0.002676	-0.022221	7.659113
550.000000	-0.002509	-0.044622	7.659113
551.000000	-0.002354	-0.058129	7.659113
552.000000	-0.002221	-0.034032	7.659113
553.000000	-0.002102	-0.029257	7.659113
554.000000	-0.001967	-0.036027	7.659113
555.000000	-0.001791	-0.032529	7.659113
556.000000	-0.001575	-0.042641	7.659113
557.000000	-0.001326	-0.046254	7.659113
558.000000	-0.001071	-0.044241	7.659113
559.000000	-0.000831	-0.054657	7.659113
560.000000	-0.000602	-0.047517	7.659113
561.000000	-0.000387	-0.046078	7.659113
562.000000	-0.000179	-0.044541	7.659113
563.000000	3.339674E-5	-0.054718	7.659113
564.000000	0.000245	-0.056504	7.659113
565.000000	0.000458	-0.054773	7.659113
566.000000	0.000680	-0.053343	7.659113
567.000000	0.000916	-0.054730	7.659113
568.000000	0.001169	-0.052920	7.659113
569.000000	0.001444	-0.064802	7.659113
570.000000	0.001743	-0.056159	7.659113
571.000000	0.002073	-0.068288	7.659113
572.000000	0.002423	-0.055975	7.659113
573.000000	0.002770	-0.080238	7.659113
574.000000	0.003110	-0.068221	7.659113
575.000000	0.003445	-0.075027	7.659113
576.000000	0.003774	-0.081905	7.659113
577.000000	0.004100	-0.080101	7.659113
578.000000	0.004436	-0.073219	7.659113
579.000000	0.004811	-0.076616	7.659113
580.000000	0.005239	-0.071292	7.659113
581.000000	0.005722	-0.086807	7.659113
582.000000	0.006257	-0.093473	7.659113
583.000000	0.006838	-0.084826	7.659113
584.000000	0.007461	-0.086656	7.659113
585.000000	0.008104	-0.081459	7.659113
586.000000	0.008738	-0.096570	7.659113
587.000000	0.009357	-0.093344	7.659113
588.000000	0.009973	-0.100455	7.659113
589.000000	0.010606	-0.112142	7.659113
590.000000	0.011289	-0.086563	7.659113
591.000000	0.012039	-0.100058	7.659113
592.000000	0.012845	-0.098345	7.659113
593.000000	0.013708	-0.100062	7.659113
594.000000	0.014636	-0.121931	7.659113
595.000000	0.015614	-0.116858	7.659113
596.000000	0.016620	-0.117091	7.659113
597.000000	0.017645	-0.101190	7.659113
598.000000	0.018687	-0.128691	7.659113
599.000000	0.019750	-0.103346	7.659113
600.000000	0.020836	-0.113388	7.659113
601.000000	0.021959	-0.110178	7.659113
602.000000	0.023140	-0.116660	7.659113
603.000000	0.024389	-0.123436	7.659113
604.000000	0.025704	-0.116509	7.659113
605.000000	0.027082	-0.119768	7.659113
606.000000	0.028509	-0.124739	7.659113
607.000000	0.029968	-0.112882	7.659113
608.000000	0.031455	-0.142191	7.659113
609.000000	0.032980	-0.140187	7.659113
610.000000	0.034561	-0.125129	7.659113
611.000000	0.036210	-0.129962	7.659113
612.000000	0.037935	-0.141900	7.659113
613.000000	0.039732	-0.141863	7.659113
614.000000	0.041589	-0.141650	7.659113
615.000000	0.043493	-0.143351	7.659113
616.000000	0.045419	-0.144887	7.659113
617.000000	0.047350	-0.151683	7.659113
618.000000	0.049297	-0.151669	7.659113
619.000000	0.051266	-0.134781	7.659113
620.000000	0.053251	-0.132678	7.659113
621.000000	0.055252	-0.151920	7.659113
622.000000	0.057285	-0.154847	7.659113
623.000000	0.059374	-0.144677	7.659113
624.000000	0.061537	-0.160118	7.659113
625.000000	0.063771	-0.139410	7.659113
626.000000	0.066052	-0.157852	7.659113
627.000000	0.068368	-0.150903	7.659113
628.000000	0.070727	-0.157676	7.659113
629.000000	0.073117	-0.152476	7.659113
630.000000	0.075522	-0.162834	7.659113
631.000000	0.077948	-0.157566	7.659113
632.000000	0.080393	-0.140286	7.659113
633.000000	0.082857	-0.166196	7.659113
634.000000	0.085368	-0.153747	7.659113
635.000000	0.087958	-0.158824	7.659113
636.000000	0.090643	-0.160190	7.659113
637.000000	0.093407	-0.161832	7.659113
638.000000	0.096228	-0.153212	7.659113
639.000000	0.099100	-0.158332	7.659113
640.000000	0.102015	-0.163313	7.659113
641.000000	0.104969	-0.164890	7.659113
642.000000	0.107961	-0.152996	7.659113
643.000000	0.110986	-0.154726	7.659113
644.000000	0.114042	-0.163129	7.659113
645.000000	0.117137	-0.154617	7.659113
646.000000	0.120278	-0.149353	7.659113
647.000000	0.123472	-0.166197	7.659113
648.000000	0.126715	-0.164409	7.659113
649.000000	0.130000	-0.140368	7.659113
650.000000	0.133311	-0.155474	7.659113
651.000000	0.136635	-0.164081	7.659113
652.000000	0.139966	-0.169310	7.659113
653.000000	0.143291	-0.169005	7.659113
654.000000	0.146609	-0.167525	7.659113
655.000000	0.149920	-0.167299	7.659113
656.000000	0.153234	-0.165492	7.659113
657.000000	0.156585	-0.160313	7.659113
658.000000	0.159990	-0.165556	7.659113
659.000000	0.163433	-0.171991	7.659113
660.000000	0.166908	-0.156453	7.659113
661.000000	0.170426	-0.164710	7.659113
662.000000	0.173991	-0.168037	7.659113
663.000000	0.177593	-0.173246	7.659113
664.000000	0.181227	-0.160984	7.659113
665.000000	0.184879	-0.157535	7.659113
666.000000	0.188541	-0.176295	7.659113
667.000000	0.192233	-0.157257	7.659113
668.000000	0.195979	-0.160575	7.659113
669.000000	0.199790	-0.148722	7.659113
670.000000	0.203675	-0.158665	7.659113
671.000000	0.207640	-0.166822	7.659113
672.000000	0.211684	-0.168832	7.659113
673.000000	0.215798	-0.147703	7.659113
674.000000	0.219965	-0.166544	7.659113
675.000000	0.224162	-0.156113	7.659113
676.000000	0.228384	-0.154218	7.659113
677.000000	0.232630	-0.172802	7.659113
678.000000	0.236888	-0.160817	7.659113
679.000000	0.241147	-0.155388	7.659113
680.000000	0.245422	-0.139939	7.659113
681.000000	0.249738	-0.155148	7.659113
682.000000	0.254096	-0.155358	7.659113
683.000000	0.258487	-0.163599	7.659113
684.000000	0.262926	-0.154832	7.659113
685.000000	0.267424	-0.156698	7.659113
686.000000	0.271970	-0.147736	7.659113
687.000000	0.276545	-0.163061	7.659113
688.000000	0.281121	-0.152722	7.659113
689.000000	0.285674	-0.155761	7.659113
690.000000	0.290190	-0.157571	7.659113
691.000000	0.294682	-0.159177	7.659113
692.000000	0.299171	-0.157313	7.659113
693.000000	0.303664	-0.160916	7.659113
694.000000	0.308170	-0.150321	7.659113
695.000000	0.312712	-0.141589	7.659113
696.000000	0.317287	-0.160455	7.659113
697.000000	0.321881	-0.139486	7.659113
698.000000	0.326485	-0.146346	7.659113
699.000000	0.331085	-0.151340	7.659113
700.000000	0.335668	-0.159805	7.659113
701.000000	0.340223	-0.174947	7.659113
702.000000	0.344760	-0.148916	7.659113
703.000000	0.349301	-0.147271	7.659113
704.000000	0.353858	-0.152666	7.659113
705.000000	0.358425	-0.152442	7.659113
706.000000	0.363010	-0.149177	7.659113
707.000000	0.367626	-0.143606	7.659113
708.000000	0.372271	-0.155475	7.659113
709.000000	0.376941	-0.161997	7.659113
710.000000	0.381650	-0.141576	7.659113
711.000000	0.386394	-0.168753	7.659113
712.000000	0.391158	-0.161871	7.659113
713.000000	0.395936	-0.151534	7.659113
714.000000	0.400728	-0.195589	7.659113
715.000000	0.405554	-0.152036	7.659113
716.000000	0.410443	-0.154833	7.659113
717.000000	0.415410	-0.144284	7.659113
718.000000	0.420443	-0.142475	7.659113
719.000000	0.425537	-0.137101	7.659113
720.000000	0.430696	-0.154168	7.659113
721.000000	0.435924	-0.152315	7.659113
722.000000	0.441220	-0.133605	7.659113
723.000000	0.446573	-0.148801	7.659113
724.000000	0.451987	-0.128557	7.659113
725.000000	0.457464	-0.135254	7.659113
726.000000	0.462982	-0.126765	7.659113
727.000000	0.468535	-0.128503	7.659113
728.000000	0.474122	-0.125432	7.659113
729.000000	0.479755	-0.134163	7.659113
730.000000	0.485457	-0.130948	7.659113
731.000000	0.491234	-0.122679	7.659113
732.000000	0.497067	-0.120856	7.659113
733.000000	0.502929	-0.131042	7.659113
734.000000	0.508810	-0.108161	7.659113
735.000000	0.514711	-0.121743	7.659113
736.000000	0.520623	-0.138843	7.659113
737.000000	0.526542	-0.135198	7.659113
738.000000	0.532477	-0.135212	7.659113
739.000000	0.538445	-0.151143	7.659113
740.000000	0.544464	-0.140500	7.659113
741.000000	0.550545	-0.138886	7.659113
742.000000	0.556688	-0.138987	7.659113
743.000000	0.562884	-0.147361	7.659113
744.000000	0.569094	-0.145566	7.659113
745.000000	0.575283	-0.153825	7.659113
746.000000	0.581430	-0.161086	7.659113
747.000000	0.587526	-0.164067	7.659113
748.000000	0.593563	-0.158874	7.659113
749.000000	0.599522	-0.157513	7.659113
750.000000	0.605383	-0.145499	7.659113
751.000000	0.611149	-0.153869	7.659113
752.000000	0.616836	-0.148734	7.659113
753.000000	0.622461	-0.165877	7.659113
754.000000	0.628031	-0.141552	7.659113
755.000000	0.633560	-0.166835	7.659113
756.000000	0.639072	-0.153214	7.659113
757.000000	0.644583	-0.144024	7.659113
758.000000	0.650080	-0.157710	7.659113
759.000000	0.655544	-0.145620	7.659113
760.000000	0.660977	-0.130458	7.659113
761.000000	0.666387	-0.143657	7.659113
762.000000	0.671776	-0.135080	7.659113
763.000000	0.677140	-0.114245	7.659113
764.000000	0.682470	-0.124302	7.659113
765.000000	0.687748	-0.129360	7.659113
766.000000	0.692970	-0.108608	7.659113
767.000000	0.698162	-0.110429	7.659113
768.000000	0.703335	-0.125504	7.659113
769.000000	0.708470	-0.111773	7.659113
770.000000	0.713539	-0.117065	7.659113
771.000000	0.718505	-0.132244	7.659113
772.000000	0.723349	-0.118708	7.659113
773.000000	0.728068	-0.140809	7.659113
774.000000	0.732657	-0.132301	7.659113
775.000000	0.737116	-0.145974	7.659113
776.000000	0.741453	-0.128924	7.659113
777.000000	0.745702	-0.149277	7.659113
778.000000	0.749894	-0.142222	7.659113
779.000000	0.754025	-0.123766	7.659113
780.000000	0.758078	-0.124816	7.659113
781.000000	0.762052	-0.145559	7.659113
782.000000	0.765942	-0.150539	7.659113
783.000000	0.769749	-0.150733	7.659113
784.000000	0.773463	-0.145473	7.659113
785.000000	0.777071	-0.130106	7.659113
786.000000	0.780577	-0.135216	7.659113
787.000000	0.783997	-0.147147	7.659113
788.000000	0.787359	-0.128492	7.659113
789.000000	0.790674	-0.100375	7.659113
790.000000	0.793931	-0.141786	7.659113
791.000000	0.797129	-0.119317	7.659113
792.000000	0.800259	-0.138119	7.659113
793.000000	0.803306	-0.124560	7.659113
794.000000	0.806275	-0.127717	7.659113
795.000000	0.809165	-0.121026	7.659113
796.000000	0.811970	-0.114204	7.659113
797.000000	0.814685	-0.125926	7.659113
798.000000	0.817321	-0.124344	7.659113
799.000000	0.819899	-0.127802	7.659113
800.000000	0.822435	-0.127811	7.659113
801.000000	0.824941	-0.113784	7.659113
802.000000	0.827431	-0.105120	7.659113
803.000000	0.829921	-0.113801	7.659113
804.000000	0.832415	-0.104625	7.659113
805.000000	0.834894	-0.110117	7.659113
806.000000	0.837339	-0.116945	7.659113
807.000000	0.839738	-0.108221	7.659113
808.000000	0.842076	-0.106181	7.659113
809.000000	0.844333	-0.120318	7.659113
810.000000	0.846504	-0.104566	7.659113
811.000000	0.848589	-0.114985	7.659113
812.000000	0.850602	-0.106330	7.659113
813.000000	0.852560	-0.100712	7.659113
814.000000	0.854468	-0.113110	7.659113
815.000000	0.856320	-0.114629	7.659113
816.000000	0.858087	-0.105657	7.659113
817.000000	0.859747	-0.111053	7.659113
818.000000	0.861308	-0.112630	7.659113
819.000000	0.862781	-0.100655	7.659113
820.000000	0.864163	-0.097411	7.659113
821.000000	0.865443	-0.107665	7.659113
822.000000	0.866619	-0.107732	7.659113
823.000000	0.867704	-0.117736	7.659113
824.000000	0.868716	-0.090428	7.659113
825.000000	0.869670	-0.093670	7.659113
826.000000	0.870581	-0.097125	7.659113
827.000000	0.871467	-0.069288	7.659113
828.000000	0.872353	-0.090198	7.659113
829.000000	0.873247	-0.090075	7.659113
830.000000	0.874122	-0.096937	7.659113
831.000000	0.874954	-0.091625	7.659113
832.000000	0.875731	-0.083132	7.659113
833.000000	0.876454	-0.084684	7.659113
834.000000	0.877133	-0.084949	7.659113
835.000000	0.877773	-0.083304	7.659113
836.000000	0.878383	-0.074672	7.659113
837.000000	0.878982	-0.085088	7.659113
838.000000	0.879589	-0.086723	7.659113
839.000000	0.880213	-0.079961	7.659113
840.000000	0.880850	-0.083338	7.659113
841.000000	0.881486	-0.076118	7.659113
842.000000	0.882121	-0.088374	7.659113
843.000000	0.882771	-0.090015	7.659113
844.000000	0.883421	-0.084984	7.659113
845.000000	0.884050	-0.103884	7.659113
846.000000	0.884645	-0.076126	7.659113
847.000000	0.885189	-0.086660	7.659113
848.000000	0.885686	-0.073184	7.659113
849.000000	0.886161	-0.108998	7.659113
850.000000	0.886628	-0.080015	7.659113
851.000000	0.887084	-0.078231	7.659113
852.000000	0.887540	-0.069606	7.659113
853.000000	0.888003	-0.097110	7.659113
854.000000	0.888475	-0.088213	7.659113
855.000000	0.888970	-0.088372	7.659113
856.000000	0.889490	-0.066261	7.659113
857.000000	0.890024	-0.072874	7.659113
858.000000	0.890550	-0.086638	7.659113
859.000000	0.891056	-0.098515	7.659113
860.000000	0.891546	-0.093415	7.659113
861.000000	0.892027	-0.084887	7.659113
862.000000	0.892512	-0.088288	7.659113
863.000000	0.893013	-0.079895	7.659113
864.000000	0.893535	-0.091544	7.659113
865.000000	0.894076	-0.081212	7.659113
866.000000	0.894618	-0.090026	7.659113
867.000000	0.895151	-0.096748	7.659113
868.000000	0.895672	-0.086390	7.659113
869.000000	0.896174	-0.078003	7.659113
870.000000	0.896664	-0.083572	7.659113
871.000000	0.897172	-0.076469	7.659113
872.000000	0.897705	-0.066188	7.659113
873.000000	0.898250	-0.086549	7.659113
874.000000	0.898802	-0.069164	7.659113
875.000000	0.899371	-0.065791	7.659113
876.000000	0.899978	-0.072926	7.659113
877.000000	0.900617	-0.096710	7.659113
878.000000	0.901257	-0.084723	7.659113
879.000000	0.901886	-0.100160	7.659113
880.000000	0.902509	-0.096869	7.659113
881.000000	0.903121	-0.088220	7.659113
882.000000	0.903717	-0.084707	7.659113
883.000000	0.904320	-0.083131	7.659113
884.000000	0.904970	-0.086227	7.659113
885.000000	0.905687	-0.089835	7.659113
886.000000	0.906481	-0.087783	7.659113
887.000000	0.907356	-0.058884	7.659113
888.000000	0.908315	-0.085923	7.659113
889.000000	0.909359	-0.077102	7.659113
890.000000	0.910501	-0.083875	7.659113
891.000000	0.911740	-0.078694	7.659113
892.000000	0.913068	-0.073691	7.659113
893.000000	0.914494	-0.078763	7.659113
894.000000	0.916043	-0.078655	7.659113
895.000000	0.917741	-0.068312	7.659113
896.000000	0.919595	-0.045980	7.659113
897.000000	0.921598	-0.061445	7.659113
898.000000	0.923749	-0.061000	7.659113
899.000000	0.926033	-0.066441	7.659113
900.000000	0.928428	-0.057598	7.659113
901.000000	0.930916	-0.074509	7.659113
902.000000	0.933492	-0.058985	7.659113
903.000000	0.936135	-0.076073	7.659113
904.000000	0.938828	-0.065796	7.659113
905.000000	0.941573	-0.055546	7.659113
906.000000	0.944378	-0.067312	7.659113
907.000000	0.947248	-0.045460	7.659113
908.000000	0.950193	-0.050211	7.659113
909.000000	0.953212	-0.053663	7.659113
910.000000	0.956296	-0.050288	7.659113
911.000000	0.959448	-0.058570	7.659113
912.000000	0.962667	-0.056844	7.659113
913.000000	0.965950	-0.058264	7.659113
914.000000	0.969288	-0.056396	7.659113
915.000000	0.972672	-0.061514	7.659113
916.000000	0.976091	-0.056406	7.659113
917.000000	0.979533	-0.058136	7.659113
918.000000	0.983006	-0.053025	7.659113
919.000000	0.986515	-0.056058	7.659113
920.000000	0.990058	-0.059590	7.659113
921.000000	0.993637	-0.062597	7.659113
922.000000	0.997254	-0.052544	7.659113
923.000000	1.000898	-0.069422	7.659113
924.000000	1.004556	-0.046971	7.659113
925.000000	1.008232	-0.053644	7.659113
926.000000	1.011914	-0.075890	7.659113
927.000000	1.015585	-0.072352	7.659113
928.000000	1.019240	-0.060496	7.659113
929.000000	1.022876	-0.070801	7.659113
930.000000	1.026497	-0.063782	7.659113
931.000000	1.030095	-0.068898	7.659113
932.000000	1.033680	-0.061920	7.659113
933.000000	1.037281	-0.056655	7.659113
934.000000	1.040908	-0.065099	7.659113
935.000000	1.044539	-0.061330	7.659113
936.000000	1.048157	-0.061425	7.659113
937.000000	1.051761	-0.075153	7.659113
938.000000	1.055348	-0.068144	7.659113
939.000000	1.058934	-0.068014	7.659113
940.000000	1.062542	-0.068049	7.659113
941.000000	1.066192	-0.047598	7.659113
942.000000	1.069881	-0.057437	7.659113
943.000000	1.073576	-0.069397	7.659113
944.000000	1.077266	-0.060743	7.659113
945.000000	1.080956	-0.065601	7.659113
946.000000	1.084640	-0.063981	7.659113
947.000000	1.088303	-0.070684	7.659113
948.000000	1.091938	-0.057060	7.659113
949.000000	1.095548	-0.072506	7.659113
950.000000	1.099129	-0.058608	7.659113
951.000000	1.102686	-0.065475	7.659113
952.000000	1.106245	-0.049991	7.659113
953.000000	1.109817	-0.051221	7.659113
954.000000	1.113378	-0.046288	7.659113
955.000000	1.116913	-0.069980	7.659113
956.000000	1.120419	-0.059875	7.659113
957.000000	1.123886	-0.087238	7.659113
958.000000	1.127311	-0.068280	7.659113
959.000000	1.130693	-0.083700	7.659113
960.000000	1.134033	-0.066578	7.659113
961.000000	1.137346	-0.076735	7.659113
962.000000	1.140647	-0.081773	7.659113
963.000000	1.143952	-0.084889	7.659113
964.000000	1.147286	-0.098702	7.659113
965.000000	1.150653	-0.064320	7.659113
966.000000	1.154043	-0.085084	7.659113
967.000000	1.157455	-0.083336	7.659113
968.000000	1.160895	-0.064081	7.659113
969.000000	1.164354	-0.081216	7.659113
970.000000	1.167824	-0.089741	7.659113
971.000000	1.171301	-0.070845	7.659113
972.000000	1.174782	-0.080934	7.659113
973.000000	1.178263	-0.087717	7.659113
974.000000	1.181716	-0.082678	7.659113
975.000000	1.185135	-0.070622	7.659113
976.000000	1.188549	-0.082719	7.659113
977.000000	1.191967	-0.074304	7.659113
978.000000	1.195385	-0.085891	7.659113
979.000000	1.198810	-0.073771	7.659113
980.000000	1.202242	-0.090944	7.659113
981.000000	1.205668	-0.063571	7.659113
982.000000	1.209069	-0.089059	7.659113
983.000000	1.212424	-0.078691	7.659113
984.000000	1.215721	-0.088783	7.659113
985.000000	1.218949	-0.099310	7.659113
986.000000	1.222113	-0.095855	7.659113
987.000000	1.225247	-0.090907	7.659113
988.000000	1.228361	-0.090593	7.659113
989.000000	1.231451	-0.092391	7.659113
990.000000	1.234530	-0.081826	7.659113
991.000000	1.237612	-0.092092	7.659113
992.000000	1.240696	-0.088507	7.659113
993.000000	1.243767	-0.102277	7.659113
994.000000	1.246797	-0.102254	7.659113
995.000000	1.249776	-0.107473	7.659113
996.000000	1.252696	-0.119564	7.659113
997.000000	1.255557	-0.095576	7.659113
998.000000	1.258369	-0.095308	7.659113
999.000000	1.261145	-0.085244	7.659113
1000.000000	1.263909	-0.098897	7.659113
1001.000000	1.266665	-0.100365	7.659113
1002.000000	1.269393	-0.114236	7.659113
1003.000000	1.272082	-0.094948	7.659113
1004.000000	1.274728	-0.088183	7.659113
1005.000000	1.277319	-0.117340	7.659113
1006.000000	1.279850	-0.089986	7.659113
1007.000000	1.282323	-0.112300	7.659113
1008.000000	1.284753	-0.117555	7.659113
1009.000000	1.287169	-0.110495	7.659113
1010.000000	1.289580	-0.105591	7.659113
1011.000000	1.291977	-0.093280	7.659113
1012.000000	1.294361	-0.103510	7.659113
1013.000000	1.296723	-0.110389	7.659113
1014.000000	1.299048	-0.115542	7.659113
1015.000000	1.301342	-0.105243	7.659113
1016.000000	1.303620	-0.110365	7.659113
1017.000000	1.305889	-0.112091	7.659113
1018.000000	1.308139	-0.117182	7.659113
1019.000000	1.310368	-0.117529	7.659113
1020.000000	1.312586	-0.108877	7.659113
1021.000000	1.314807	-0.110665	7.659113
1022.000000	1.317037	-0.108697	7.659113
1023.000000	1.319274	-0.108343	7.659113
1024.000000	1.321519	-0.100010	7.659113
1025.000000	1.323789	-0.105188	7.659113
1026.000000	1.326074	-0.115390	7.659113
1027.000000	1.328340	-0.120438	7.659113
1028.000000	1.330583	-0.116844	7.659113
1029.000000	1.332817	-0.130522	7.659113
1030.000000	1.335052	-0.134354	7.659113
1031.000000	1.337292	-0.134331	7.659113
1032.000000	1.339553	-0.103316	7.659113
1033.000000	1.341859	-0.125419	7.659113
1034.000000	1.344220	-0.108338	7.659113
1035.000000	1.346635	-0.123843	7.659113
1036.000000	1.349110	-0.120230	7.659113
1037.000000	1.351639	-0.118302	7.659113
1038.000000	1.354208	-0.113185	7.659113
1039.000000	1.356815	-0.106210	7.659113
1040.000000	1.359464	-0.121652	7.659113
1041.000000	1.362144	-0.113070	7.659113
1042.000000	1.364870	-0.104456	7.659113
1043.000000	1.367668	-0.097758	7.659113
1044.000000	1.370540	-0.099128	7.659113
1045.000000	1.373490	-0.119553	7.659113
1046.000000	1.376514	-0.102308	7.659113
1047.000000	1.379605	-0.085178	7.659113
1048.000000	1.382754	-0.112424	7.659113
1049.000000	1.385944	-0.103616	7.659113
1050.000000	1.389171	-0.098655	7.659113
1051.000000	1.392444	-0.096834	7.659113
1052.000000	1.395777	-0.100265	7.659113
1053.000000	1.399186	-0.094994	7.659113
1054.000000	1.402675	-0.103528	7.659113
1055.000000	1.406254	-0.094931	7.659113
1056.000000	1.409942	-0.079316	7.659113
1057.000000	1.413740	-0.087824	7.659113
1058.000000	1.417631	-0.096293	7.659113
1059.000000	1.421586	-0.094397	7.659113
1060.000000	1.425605	-0.096081	7.659113
1061.000000	1.429689	-0.102972	7.659113
1062.000000	1.433813	-0.084242	7.659113
1063.000000	1.437963	-0.097955	7.659113
1064.000000	1.442141	-0.099289	7.659113
1065.000000	1.446343	-0.102831	7.659113
1066.000000	1.450568	-0.094149	7.659113
1067.000000	1.454837	-0.073371	7.659113
1068.000000	1.459154	-0.083553	7.659113
1069.000000	1.463503	-0.074996	7.659113
1070.000000	1.467858	-0.093676	7.659113
1071.000000	1.472211	-0.090329	7.659113
1072.000000	1.476558	-0.101962	7.659113
1073.000000	1.480888	-0.102245	7.659113
1074.000000	1.485208	-0.088358	7.659113
1075.000000	1.489527	-0.100090	7.659113
1076.000000	1.493845	-0.089962	7.659113
1077.000000	1.498182	-0.094969	7.659113
1078.000000	1.502570	-0.081142	7.659113
1079.000000	1.507030	-0.083052	7.659113
1080.000000	1.511553	-0.084281	7.659113
1081.000000	1.516122	-0.080959	7.659113
1082.000000	1.520732	-0.089160	7.659113
1083.000000	1.525374	-0.090814	7.659113
1084.000000	1.530025	-0.085484	7.659113
1085.000000	1.534677	-0.085481	7.659113
1086.000000	1.539347	-0.087316	7.659113
1087.000000	1.544049	-0.068436	7.659113
1088.000000	1.548793	-0.092395	7.659113
1089.000000	1.553587	-0.066322	7.659113
1090.000000	1.558419	-0.087026	7.659113
1091.000000	1.563268	-0.084973	7.659113
1092.000000	1.568126	-0.066196	7.659113
1093.000000	1.572991	-0.074624	7.659113
1094.000000	1.577843	-0.069354	7.659113
1095.000000	1.582654	-0.081202	7.659113
1096.000000	1.587394	-0.069315	7.659113
1097.000000	1.592071	-0.083123	7.659113
1098.000000	1.596736	-0.062719	7.659113
1099.000000	1.601424	-0.082728	7.659113
1100.000000	1.606141	-0.074321	7.659113
1101.000000	1.610881	-0.079289	7.659113
1102.000000	1.615630	-0.072297	7.659113
1103.000000	1.620372	-0.066877	7.659113
1104.000000	1.625099	-0.070070	7.659113
1105.000000	1.629806	-0.064927	7.659113
1106.000000	1.634475	-0.085609	7.659113
1107.000000	1.639099	-0.083996	7.659113
1108.000000	1.643686	-0.087222	7.659113
1109.000000	1.648233	-0.068677	7.659113
1110.000000	1.652748	-0.076801	7.659113
1111.000000	1.657260	-0.073363	7.659113
1112.000000	1.661780	-0.075193	7.659113
1113.000000	1.666291	-0.079927	7.659113
1114.000000	1.670789	-0.071488	7.659113
1115.000000	1.675272	-0.072954	7.659113
1116.000000	1.679731	-0.069340	7.659113
1117.000000	1.684169	-0.084685	7.659113
1118.000000	1.688575	-0.091750	7.659113
1119.000000	1.692932	-0.083021	7.659113
1120.000000	1.697245	-0.076315	7.659113
1121.000000	1.701523	-0.070760	7.659113
1122.000000	1.705763	-0.070874	7.659113
1123.000000	1.709976	-0.072321	7.659113
1124.000000	1.714187	-0.063588	7.659113
1125.000000	1.718407	-0.066981	7.659113
1126.000000	1.722631	-0.068702	7.659113
1127.000000	1.726835	-0.083988	7.659113
1128.000000	1.730994	-0.079026	7.659113
1129.000000	1.735106	-0.065046	7.659113
1130.000000	1.739190	-0.090824	7.659113
1131.000000	1.743250	-0.075516	7.659113
1132.000000	1.747288	-0.094033	7.659113
1133.000000	1.751306	-0.070114	7.659113
1134.000000	1.755312	-0.083767	7.659113
1135.000000	1.759320	-0.061233	7.659113
1136.000000	1.763321	-0.068246	7.659113
1137.000000	1.767308	-0.081656	7.659113
1138.000000	1.771273	-0.074602	7.659113
1139.000000	1.775210	-0.074734	7.659113
1140.000000	1.779121	-0.067760	7.659113
1141.000000	1.783005	-0.083223	7.659113
1142.000000	1.786872	-0.074797	7.659113
1143.000000	1.790746	-0.094902	7.659113
1144.000000	1.794640	-0.064418	7.659113
1145.000000	1.798564	-0.055883	7.659113
1146.000000	1.802523	-0.069225	7.659113
1147.000000	1.806507	-0.069026	7.659113
1148.000000	1.810506	-0.072258	7.659113
1149.000000	1.814514	-0.068896	7.659113
1150.000000	1.818522	-0.065305	7.659113
1151.000000	1.822527	-0.055075	7.659113
1152.000000	1.826523	-0.075453	7.659113
1153.000000	1.830498	-0.072127	7.659113
1154.000000	1.834452	-0.065220	7.659113
1155.000000	1.838402	-0.058552	7.659113
1156.000000	1.842372	-0.065213	7.659113
1157.000000	1.846365	-0.059761	7.659113
1158.000000	1.850368	-0.075190	7.659113
1159.000000	1.854374	-0.068422	7.659113
1160.000000	1.858381	-0.069822	7.659113
1161.000000	1.862383	-0.073310	7.659113
1162.000000	1.866362	-0.073142	7.659113
1163.000000	1.870300	-0.074932	7.659113
1164.000000	1.874190	-0.064496	7.659113
1165.000000	1.878045	-0.090203	7.659113
1166.000000	1.881877	-0.076731	7.659113
1167.000000	1.885696	-0.071108	7.659113
1168.000000	1.889520	-0.071067	7.659113
1169.000000	1.893380	-0.066156	7.659113
1170.000000	1.897299	-0.064022	7.659113
1171.000000	1.901263	-0.062152	7.659113
1172.000000	1.905254	-0.064094	7.659113
1173.000000	1.909271	-0.080791	7.659113
1174.000000	1.913306	-0.070463	7.659113
1175.000000	1.917342	-0.061864	7.659113
1176.000000	1.921373	-0.077261	7.659113
1177.000000	1.925401	-0.082357	7.659113
1178.000000	1.929438	-0.063560	7.659113
1179.000000	1.933502	-0.073996	7.659113
1180.000000	1.937615	-0.063441	7.659113
1181.000000	1.941786	-0.066769	7.659113
1182.000000	1.946020	-0.072021	7.659113
1183.000000	1.950312	-0.073239	7.659113
1184.000000	1.954649	-0.071597	7.659113
1185.000000	1.959027	-0.052369	7.659113
1186.000000	1.963436	-0.064296	7.659113
1187.000000	1.967847	-0.074676	7.659113
1188.000000	1.972249	-0.069382	7.659113
1189.000000	1.976647	-0.057386	7.659113
1190.000000	1.981047	-0.073153	7.659113
1191.000000	1.985459	-0.050486	7.659113
1192.000000	1.989886	-0.052268	7.659113
1193.000000	1.994323	-0.055469	7.659113
1194.000000	1.998766	-0.036310	7.659113
1195.000000	2.003219	-0.058492	7.659113
1196.000000	2.007696	-0.049827	7.659113
1197.000000	2.012182	-0.048032	7.659113
1198.000000	2.016654	-0.058428	7.659113
1199.000000	2.021102	-0.065092	7.659113
1200.000000	2.025509	-0.063489	7.659113
1201.000000	2.029879	-0.049833	7.659113
1202.000000	2.034235	-0.063232	7.659113
1203.000000	2.038579	-0.068609	7.659113
1204.000000	2.042924	-0.063305	7.659113
1205.000000	2.047286	-0.035687	7.659113
1206.000000	2.051674	-0.052848	7.659113
1207.000000	2.056086	-0.047443	7.659113
1208.000000	2.060501	-0.066535	7.659113
1209.000000	2.064899	-0.052756	7.659113
1210.000000	2.069264	-0.047440	7.659113
1211.000000	2.073585	-0.069702	7.659113
1212.000000	2.077868	-0.060981	7.659113
1213.000000	2.082116	-0.059223	7.659113
1214.000000	2.086340	-0.050894	7.659113
1215.000000	2.090555	-0.057496	7.659113
1216.000000	2.094772	-0.035007	7.659113
1217.000000	2.098998	-0.044946	7.659113
1218.000000	2.103226	-0.046648	7.659113
1219.000000	2.107449	-0.050135	7.659113
1220.000000	2.111660	-0.056857	7.659113
1221.000000	2.115839	-0.046673	7.659113
1222.000000	2.119973	-0.050037	7.659113
1223.000000	2.124063	-0.046503	7.659113
1224.000000	2.128114	-0.051618	7.659113
1225.000000	2.132132	-0.049904	7.659113
1226.000000	2.136134	-0.053268	7.659113
1227.000000	2.140140	-0.044582	7.659113
1228.000000	2.144156	-0.044416	7.659113
1229.000000	2.148187	-0.046153	7.659113
1230.000000	2.152222	-0.042639	7.659113
1231.000000	2.156248	-0.035520	7.659113
1232.000000	2.160266	-0.039035	7.659113
1233.000000	2.164273	-0.045776	7.659113
1234.000000	2.168261	-0.049139	7.659113
1235.000000	2.172222	-0.050888	7.659113
1236.000000	2.176154	-0.037050	7.659113
1237.000000	2.180067	-0.038737	7.659113
1238.000000	2.183980	-0.040592	7.659113
1239.000000	2.187905	-0.033474	7.659113
1240.000000	2.191845	-0.043708	7.659113
1241.000000	2.195805	-0.046943	7.659113
1242.000000	2.199793	-0.043498	7.659113
1243.000000	2.203829	-0.045169	7.659113
1244.000000	2.207924	-0.053405	7.659113
1245.000000	2.212038	-0.044843	7.659113
1246.000000	2.216152	-0.036197	7.659113
1247.000000	2.220277	-0.051471	7.659113
1248.000000	2.224393	-0.035911	7.659113
1249.000000	2.228487	-0.037867	7.659113
1250.000000	2.232577	-0.044526	7.659113
1251.000000	2.236672	-0.031016	7.659113
1252.000000	2.240779	-0.027179	7.659113
1253.000000	2.244918	-0.034241	7.659113
1254.000000	2.249112	-0.037437	7.659113
1255.000000	2.253364	-0.030366	7.659113
1256.000000	2.257664	-0.016668	7.659113
1257.000000	2.262021	-0.023105	7.659113
1258.000000	2.266451	-0.018113	7.659113
1259.000000	2.270957	-0.009489	7.659113
1260.000000	2.275525	-0.010825	7.659113
1261.000000	2.280128	-0.027823	7.659113
1262.000000	2.284750	-0.012250	7.659113
1263.000000	2.289391	-0.027560	7.659113
1264.000000	2.294068	-0.003617	7.659113
1265.000000	2.298785	-0.029246	7.659113
1266.000000	2.303528	-0.017507	7.659113
1267.000000	2.308317	-0.009015	7.659113
1268.000000	2.313185	0.005177	7.659113
1269.000000	2.318142	0.000448	7.659113
1270.000000	2.323192	0.000460	7.659113
1271.000000	2.328316	0.007686	7.659113
1272.000000	2.333511	0.009205	7.659113
1273.000000	2.338790	0.007846	7.659113
1274.000000	2.344132	0.004447	7.659113
1275.000000	2.349516	-0.004207	7.659113
1276.000000	2.354935	-0.000548	7.659113
1277.000000	2.360380	-0.000450	7.659113
1278.000000	2.365859	0.001407	7.659113
1279.000000	2.371381	0.004501	7.659113
1280.000000	2.376954	0.016842	7.659113
1281.000000	2.382582	0.008186	7.659113
1282.000000	2.388246	0.022300	7.659113
1283.000000	2.393938	0.024379	7.659113
1284.000000	2.399672	0.017581	7.659113
1285.000000	2.405439	0.017690	7.659113
1286.000000	2.411219	0.016022	7.659113
1287.000000	2.416997	0.011063	7.659113
1288.000000	2.422766	0.022806	7.659113
1289.000000	2.428541	0.024657	7.659113
1290.000000	2.434360	0.019725	7.659113
1291.000000	2.440232	0.021856	7.659113
1292.000000	2.446151	0.038976	7.659113
1293.000000	2.452121	0.028732	7.659113
1294.000000	2.458136	0.023836	7.659113
1295.000000	2.464159	0.010451	7.659113
1296.000000	2.470176	0.034272	7.659113
1297.000000	2.476200	0.037966	7.659113
1298.000000	2.482231	0.022419	7.659113
1299.000000	2.488256	0.027806	7.659113
1300.000000	2.494279	0.016027	7.659113
1301.000000	2.500299	0.050111	7.659113
1302.000000	2.506325	0.033206	7.659113
1303.000000	2.512374	0.043597	7.659113
1304.000000	2.518464	0.038488	7.659113
1305.000000	2.524587	0.045938	7.659113
1306.000000	2.530722	0.049405	7.659113
1307.000000	2.536855	0.035541	7.659113
1308.000000	2.542974	0.030774	7.659113
1309.000000	2.549069	0.039138	7.659113
1310.000000	2.555144	0.039251	7.659113
1311.000000	2.561197	0.039446	7.659113
1312.000000	2.567220	0.054681	7.659113
1313.000000	2.573230	0.060325	7.659113
1314.000000	2.579256	0.068759	7.659113
1315.000000	2.585323	0.081080	7.659113
1316.000000	2.591429	0.046982	7.659113
1317.000000	2.597540	0.045398	7.659113
1318.000000	2.603624	0.040582	7.659113
1319.000000	2.609667	0.052814	7.659113
1320.000000	2.615669	0.050931	7.659113
1321.000000	2.621649	0.052717	7.659113
1322.000000	2.627620	0.063184	7.659113
1323.000000	2.633579	0.059544	7.659113
1324.000000	2.639533	0.032488	7.659113
1325.000000	2.645507	0.056537	7.659113
1326.000000	2.651523	0.054896	7.659113
1327.000000	2.657577	0.044993	7.659113
1328.000000	2.663662	0.082780	7.659113
1329.000000	2.669781	0.057163	7.659113
1330.000000	2.675940	0.055583	7.659113
1331.000000	2.682128	0.055868	7.659113
1332.000000	2.688326	0.073052	7.659113
1333.000000	2.694514	0.072974	7.659113
1334.000000	2.700683	0.073104	7.659113
1335.000000	2.706838	0.061267	7.659113
1336.000000	2.712992	0.056095	7.659113
1337.000000	2.719164	0.064836	7.659113
1338.000000	2.725376	0.082146	7.659113
1339.000000	2.731614	0.080450	7.659113
1340.000000	2.737861	0.089128	7.659113
1341.000000	2.744097	0.058841	7.659113
1342.000000	2.750301	0.060308	7.659113
1343.000000	2.756470	0.072615	7.659113
1344.000000	2.762607	0.079587	7.659113
1345.000000	2.768710	0.086472	7.659113
1346.000000	2.774783	0.072700	7.659113
1347.000000	2.780827	0.079406	7.659113
1348.000000	2.786867	0.085015	7.659113
1349.000000	2.792911	0.081826	7.659113
1350.000000	2.798968	0.081883	7.659113
1351.000000	2.805064	0.090602	7.659113
1352.000000	2.811202	0.092461	7.659113
1353.000000	2.817370	0.084307	7.659113
1354.000000	2.823558	0.099820	7.659113
1355.000000	2.829757	0.092999	7.659113
1356.000000	2.835964	0.081126	7.659113
1357.000000	2.842168	0.089738	7.659113
1358.000000	2.848354	0.096879	7.659113
1359.000000	2.854517	0.083269	7.659113
1360.000000	2.860673	0.102016	7.659113
1361.000000	2.866838	0.110764	7.659113
1362.000000	2.873018	0.092086	7.659113
1363.000000	2.879229	0.107615	7.659113
1364.000000	2.885486	0.112600	7.659113
1365.000000	2.891791	0.112879	7.659113
1366.000000	2.898127	0.106366	7.659113
1367.000000	2.904477	0.102832	7.659113
1368.000000	2.910849	0.111764	7.659113
1369.000000	2.917245	0.111824	7.659113
1370.000000	2.923649	0.103343	7.659113
1371.000000	2.930044	0.108797	7.659113
1372.000000	2.936413	0.102070	7.659113
1373.000000	2.942746	0.117255	7.659113
1374.000000	2.949050	0.124384	7.659113
1375.000000	2.955327	0.122678	7.659113
1376.000000	2.961570	0.109256	7.659113
1377.000000	2.967789	0.115896	7.659113
1378.000000	2.974010	0.103935	7.659113
1379.000000	2.980226	0.119631	7.659113
1380.000000	2.986427	0.125044	7.659113
1381.000000	2.992629	0.130060	7.659113
1382.000000	2.998833	0.125276	7.659113
1383.000000	3.005016	0.118626	7.659113
1384.000000	3.011147	0.137600	7.659113
1385.000000	3.017218	0.108543	7.659113
1386.000000	3.023236	0.118805	7.659113
1387.000000	3.029191	0.120600	7.659113
1388.000000	3.035076	0.127506	7.659113
1389.000000	3.040902	0.139690	7.659113
1390.000000	3.046679	0.134516	7.659113
1391.000000	3.052400	0.115955	7.659113
1392.000000	3.058066	0.138292	7.659113
1393.000000	3.063697	0.133241	7.659113
1394.000000	3.069310	0.133642	7.659113
1395.000000	3.074897	0.140466	7.659113
1396.000000	3.080443	0.138824	7.659113
1397.000000	3.085938	0.119879	7.659113
1398.000000	3.091372	0.125237	7.659113
1399.000000	3.096739	0.125257	7.659113
1400.000000	3.102036	0.135620	7.659113
1401.000000	3.107255	0.147376	7.659113
1402.000000	3.112405	0.152845	7.659113
1403.000000	3.117513	0.125532	7.659113
1404.000000	3.122598	0.149962	7.659113
1405.000000	3.127677	0.158453	7.659113
1406.000000	3.132761	0.153475	7.659113
1407.000000	3.137838	0.138057	7.659113
1408.000000	3.142898	0.148646	7.659113
1409.000000	3.147926	0.150390	7.659113
1410.000000	3.152899	0.152249	7.659113
1411.000000	3.157811	0.159151	7.659113
1412.000000	3.162678	0.158941	7.659113
1413.000000	3.167532	0.148731	7.659113
1414.000000	3.172389	0.167876	7.659113
1415.000000	3.177254	0.164850	7.659113
1416.000000	3.182117	0.159767	7.659113
1417.000000	3.186982	0.152870	7.659113
1418.000000	3.191865	0.148191	7.659113
1419.000000	3.196764	0.167083	7.659113
1420.000000	3.201655	0.163456	7.659113
1421.000000	3.206528	0.165341	7.659113
1422.000000	3.211386	0.170516	7.659113
1423.000000	3.216231	0.172199	7.659113
1424.000000	3.221069	0.167097	7.659113
1425.000000	3.225912	0.186216	7.659113
1426.000000	3.230777	0.182813	7.659113
1427.000000	3.235676	0.177768	7.659113
1428.000000	3.240606	0.179841	7.659113
1429.000000	3.245556	0.176603	7.659113
1430.000000	3.250515	0.171558	7.659113
1431.000000	3.255473	0.185364	7.659113
1432.000000	3.260418	0.175265	7.659113
1433.000000	3.265329	0.188890	7.659113
1434.000000	3.270194	0.173527	7.659113
1435.000000	3.275022	0.176882	7.659113
1436.000000	3.279844	0.163196	7.659113
1437.000000	3.284692	0.185677	7.659113
1438.000000	3.289568	0.189201	7.659113
1439.000000	3.294463	0.186069	7.659113
1440.000000	3.299376	0.201553	7.659113
1441.000000	3.304300	0.189748	7.659113
1442.000000	3.309238	0.188267	7.659113
1443.000000	3.314181	0.198599	7.659113
1444.000000	3.319107	0.195095	7.659113
1445.000000	3.324024	0.186696	7.659113
1446.000000	3.328939	0.192052	7.659113
1447.000000	3.333859	0.200442	7.659113
1448.000000	3.338816	0.216275	7.659113
1449.000000	3.343832	0.199218	7.659113
1450.000000	3.348890	0.199322	7.659113
1451.000000	3.353986	0.204779	7.659113
1452.000000	3.359120	0.208229	7.659113
1453.000000	3.364268	0.220477	7.659113
1454.000000	3.369424	0.211853	7.659113
1455.000000	3.374593	0.198217	7.659113
1456.000000	3.379775	0.208735	7.659113
1457.000000	3.384978	0.207132	7.659113
1458.000000	3.390212	0.229254	7.659113
1459.000000	3.395481	0.217303	7.659113
1460.000000	3.400789	0.228043	7.659113
1461.000000	3.406138	0.212556	7.659113
1462.000000	3.411523	0.214492	7.659113
1463.000000	3.416936	0.211172	7.659113
1464.000000	3.422364	0.216395	7.659113
1465.000000	3.427802	0.208025	7.659113
1466.000000	3.433242	0.223663	7.659113
1467.000000	3.438670	0.231717	7.659113
1468.000000	3.444086	0.221856	7.659113
1469.000000	3.449508	0.244401	7.659113
1470.000000	3.454952	0.233945	7.659113
1471.000000	3.460419	0.232365	7.659113
1472.000000	3.465897	0.248215	7.659113
1473.000000	3.471380	0.217525	7.659113
1474.000000	3.476851	0.227835	7.659113
1475.000000	3.482298	0.231495	7.659113
1476.000000	3.487716	0.233427	7.659113
1477.000000	3.493110	0.243676	7.659113
1478.000000	3.498489	0.221389	7.659113
1479.000000	3.503848	0.212928	7.659113
1480.000000	3.509183	0.215921	7.659113
1481.000000	3.514514	0.245523	7.659113
1482.000000	3.519855	0.240670	7.659113
1483.000000	3.525195	0.228712	7.659113
1484.000000	3.530519	0.234051	7.659113
1485.000000	3.535824	0.229119	7.659113
1486.000000	3.541114	0.248103	7.659113
1487.000000	3.546388	0.232613	7.659113
1488.000000	3.551634	0.223915	7.659113
1489.000000	3.556840	0.233173	7.659113
1490.000000	3.561988	0.224457	7.659113
1491.000000	3.567086	0.244976	7.659113
1492.000000	3.572170	0.245119	7.659113
1493.000000	3.577269	0.252060	7.659113
1494.000000	3.582381	0.243453	7.659113
1495.000000	3.587481	0.247172	7.659113
1496.000000	3.592552	0.235384	7.659113
1497.000000	3.597598	0.242327	7.659113
1498.000000	3.602613	0.230554	7.659113
1499.000000	3.607574	0.235410	7.659113
1500.000000	3.612472	0.249191	7.659113
1501.000000	3.617305	0.223657	7.659113
1502.000000	3.622064	0.238716	7.659113
1503.000000	3.626741	0.232397	7.659113
1504.000000	3.631322	0.243930	7.659113
1505.000000	3.635796	0.259879	7.659113
1506.000000	3.640161	0.227075	7.659113
1507.000000	3.644421	0.241184	7.659113
1508.000000	3.648602	0.226014	7.659113
1509.000000	3.652740	0.238018	7.659113
1510.000000	3.656857	0.222616	7.659113
1511.000000	3.660957	0.239936	7.659113
1512.000000	3.665043	0.245160	7.659113
1513.000000	3.669117	0.252139	7.659113
1514.000000	3.673173	0.245361	7.659113
1515.000000	3.677223	0.236379	7.659113
1516.000000	3.681285	0.233378	7.659113
1517.000000	3.685358	0.250472	7.659113
1518.000000	3.689436	0.250803	7.659113
1519.000000	3.693531	0.249080	7.659113
1520.000000	3.697657	0.256083	7.659113
1521.000000	3.701827	0.266696	7.659113
1522.000000	3.706032	0.253170	7.659113
1523.000000	3.710262	0.254675	7.659113
1524.000000	3.714514	0.265099	7.659113
1525.000000	3.718771	0.237632	7.659113
1526.000000	3.723018	0.239337	7.659113
1527.000000	3.727259	0.237709	7.659113
1528.000000	3.731494	0.263492	7.659113
1529.000000	3.735724	0.246676	7.659113
1530.000000	3.739952	0.248405	7.659113
1531.000000	3.744189	0.243412	7.659113
1532.000000	3.748435	0.255458	7.659113
1533.000000	3.752676	0.264293	7.659113
1534.000000	3.756898	0.266124	7.659113
1535.000000	3.761087	0.245591	7.659113
1536.000000	3.765241	0.254169	7.659113
1537.000000	3.769373	0.261007	7.659113
1538.000000	3.773504	0.237515	7.659113
1539.000000	3.777648	0.262739	7.659113
1540.000000	3.781812	0.247829	7.659113
1541.000000	3.786002	0.265092	7.659113
1542.000000	3.790228	0.263314	7.659113
1543.000000	3.794498	0.254904	7.659113
1544.000000	3.798799	0.243149	7.659113
1545.000000	3.803121	0.260279	7.659113
1546.000000	3.807478	0.269054	7.659113
1547.000000	3.811875	0.265468	7.659113
1548.000000	3.816301	0.250329	7.659113
1549.000000	3.820752	0.274574	7.659113
1550.000000	3.825237	0.248476	7.659113
1551.000000	3.829770	0.262620	7.659113
1552.000000	3.834354	0.264267	7.659113
1553.000000	3.838980	0.257625	7.659113
1554.000000	3.843640	0.276906	7.659113
1555.000000	3.848330	0.276882	7.659113
1556.000000	3.853046	0.268328	7.659113
1557.000000	3.857771	0.275271	7.659113
1558.000000	3.862503	0.251510	7.659113
1559.000000	3.867260	0.268427	7.659113
1560.000000	3.872055	0.268743	7.659113
1561.000000	3.876878	0.265456	7.659113
1562.000000	3.881737	0.265338	7.659113
1563.000000	3.886661	0.288052	7.659113
1564.000000	3.891633	0.265608	7.659113
1565.000000	3.896626	0.286505	7.659113
1566.000000	3.901625	0.257506	7.659113
1567.000000	3.906612	0.276416	7.659113
1568.000000	3.911585	0.268094	7.659113
1569.000000	3.916556	0.271457	7.659113
1570.000000	3.921534	0.259258	7.659113
1571.000000	3.926527	0.271621	7.659113
1572.000000	3.931546	0.283750	7.659113
1573.000000	3.936600	0.282225	7.659113
1574.000000	3.941699	0.272230	7.659113
1575.000000	3.946840	0.270583	7.659113
1576.000000	3.952014	0.277515	7.659113
1577.000000	3.957205	0.276359	7.659113
1578.000000	3.962398	0.276155	7.659113
1579.000000	3.967591	0.267485	7.659113
1580.000000	3.972790	0.279694	7.659113
1581.000000	3.977995	0.277772	7.659113
1582.000000	3.983218	0.274872	7.659113
1583.000000	3.988480	0.285151	7.659113
1584.000000	3.993783	0.278199	7.659113
1585.000000	3.999122	0.273295	7.659113
1586.000000	4.004496	0.275209	7.659113
1587.000000	4.009897	0.285767	7.659113
1588.000000	4.015307	0.279104	7.659113
1589.000000	4.020699	0.270527	7.659113
1590.000000	4.026064	0.280842	7.659113
1591.000000	4.031399	0.275702	7.659113
1592.000000	4.036695	0.274114	7.659113
1593.000000	4.041952	0.280942	7.659113
1594.000000	4.047193	0.284512	7.659113
1595.000000	4.052438	0.277749	7.659113
1596.000000	4.057694	0.277909	7.659113
1597.000000	4.062956	0.298701	7.659113
1598.000000	4.068210	0.290396	7.659113
1599.000000	4.073446	0.273112	7.659113
1600.000000	4.078668	0.287142	7.659113
1601.000000	4.083875	0.269876	7.659113
1602.000000	4.089057	0.266657	7.659113
1603.000000	4.094202	0.270002	7.659113
1604.000000	4.099301	0.271827	7.659113
1605.000000	4.104365	0.278685	7.659113
1606.000000	4.109415	0.290817	7.659113
1607.000000	4.114462	0.280723	7.659113
1608.000000	4.119514	0.277450	7.659113
1609.000000	4.124587	0.291520	7.659113
1610.000000	4.129687	0.286442	7.659113
1611.000000	4.134818	0.293619	7.659113
1612.000000	4.139977	0.283064	7.659113
1613.000000	4.145152	0.284797	7.659113
1614.000000	4.150325	0.283204	7.659113
1615.000000	4.155480	0.298791	7.659113
1616.000000	4.160603	0.286851	7.659113
1617.000000	4.165686	0.281927	7.659113
1618.000000	4.170730	0.286886	7.659113
1619.000000	4.175762	0.290526	7.659113
1620.000000	4.180799	0.302895	7.659113
1621.000000	4.185836	0.299401	7.659113
1622.000000	4.190874	0.303304	7.659113
1623.000000	4.195925	0.304821	7.659113
1624.000000	4.200972	0.303319	7.659113
1625.000000	4.205990	0.308546	7.659113
1626.000000	4.210963	0.291207	7.659113
1627.000000	4.215901	0.289743	7.659113
1628.000000	4.220813	0.291510	7.659113
1629.000000	4.225684	0.287884	7.659113
1630.000000	4.230519	0.286670	7.659113
1631.000000	4.235340	0.303672	7.659113
1632.000000	4.240154	0.300424	7.659113
1633.000000	4.244963	0.314267	7.659113
1634.000000	4.249774	0.288537	7.659113
1635.000000	4.254580	0.299095	7.659113
1636.000000	4.259361	0.306096	7.659113
1637.000000	4.264119	0.316497	7.659113
1638.000000	4.268850	0.309713	7.659113
1639.000000	4.273532	0.313068	7.659113
1640.000000	4.278156	0.311337	7.659113
1641.000000	4.282764	0.311729	7.659113
1642.000000	4.287389	0.313220	7.659113
1643.000000	4.292027	0.322172	7.659113
1644.000000	4.296679	0.315372	7.659113
1645.000000	4.301344	0.314003	7.659113
1646.000000	4.306027	0.315647	7.659113
1647.000000	4.310728	0.300376	7.659113
1648.000000	4.315437	0.322816	7.659113
1649.000000	4.320165	0.315895	7.659113
1650.000000	4.324920	0.335009	7.659113
1651.000000	4.329694	0.330081	7.659113
1652.000000	4.334490	0.323242	7.659113
1653.000000	4.339307	0.323072	7.659113
1654.000000	4.344149	0.325085	7.659113
1655.000000	4.349033	0.338644	7.659113
1656.000000	4.353979	0.316909	7.659113
1657.000000	4.358982	0.344369	7.659113
1658.000000	4.364030	0.320618	7.659113
1659.000000	4.369126	0.325788	7.659113
1660.000000	4.374268	0.336296	7.659113
1661.000000	4.379449	0.339881	7.659113
1662.000000	4.384659	0.326186	7.659113
1663.000000	4.389886	0.329539	7.659113
1664.000000	4.395125	0.351861	7.659113
1665.000000	4.400383	0.329935	7.659113
1666.000000	4.405665	0.319457	7.659113
1667.000000	4.410972	0.350503	7.659113
1668.000000	4.416303	0.335113	7.659113
1669.000000	4.421643	0.337029	7.659113
1670.000000	4.426977	0.348978	7.659113
1671.000000	4.432301	0.335550	7.659113
1672.000000	4.437611	0.335814	7.659113
1673.000000	4.442889	0.347917	7.659113
1674.000000	4.448127	0.332375	7.659113
1675.000000	4.453326	0.336183	7.659113
1676.000000	4.458472	0.339648	7.659113
1677.000000	4.463556	0.342997	7.659113
1678.000000	4.468590	0.353266	7.659113
1679.000000	4.473598	0.337850	7.659113
1680.000000	4.478583	0.345052	7.659113
1681.000000	4.483538	0.341709	7.659113
1682.000000	4.488468	0.351968	7.659113
1683.000000	4.493393	0.371084	7.659113
1684.000000	4.498317	0.352200	7.659113
1685.000000	4.503223	0.354253	7.659113
1686.000000	4.508091	0.326823	7.659113
1687.000000	4.512915	0.373382	7.659113
1688.000000	4.517687	0.337227	7.659113
1689.000000	4.522398	0.357695	7.659113
1690.000000	4.527045	0.334005	7.659113
1691.000000	4.531627	0.349578	7.659113
1692.000000	4.536147	0.337392	7.659113
1693.000000	4.540628	0.371842	7.659113
1694.000000	4.545089	0.358238	7.659113
1695.000000	4.549542	0.360134	7.659113
1696.000000	4.553990	0.346408	7.659113
1697.000000	4.558427	0.351641	7.659113
1698.000000	4.562838	0.367152	7.659113
1699.000000	4.567208	0.367323	7.659113
1700.000000	4.571518	0.356984	7.659113
1701.000000	4.575757	0.346638	7.659113
1702.000000	4.579932	0.365582	7.659113
1703.000000	4.584053	0.353593	7.659113
1704.000000	4.588123	0.348726	7.659113
1705.000000	4.592146	0.372468	7.659113
1706.000000	4.596128	0.359129	7.659113
1707.000000	4.600070	0.359319	7.659113
1708.000000	4.603975	0.364375	7.659113
1709.000000	4.607839	0.371268	7.659113
1710.000000	4.611657	0.375062	7.659113
1711.000000	4.615410	0.366340	7.659113
1712.000000	4.619087	0.342520	7.659113
1713.000000	4.622694	0.364675	7.659113
1714.000000	4.626253	0.356068	7.659113
1715.000000	4.629789	0.368334	7.659113
1716.000000	4.633320	0.368109	7.659113
1717.000000	4.636859	0.373392	7.659113
1718.000000	4.640399	0.378848	7.659113
1719.000000	4.643925	0.377223	7.659113
1720.000000	4.647424	0.365509	7.659113
1721.000000	4.650885	0.372264	7.659113
1722.000000	4.654296	0.358467	7.659113
1723.000000	4.657640	0.339933	7.659113
1724.000000	4.660916	0.370629	7.659113
1725.000000	4.664139	0.380912	7.659113
1726.000000	4.667311	0.370890	7.659113
1727.000000	4.670436	0.377304	7.659113
1728.000000	4.673532	0.382532	7.659113
1729.000000	4.676609	0.370673	7.659113
1730.000000	4.679674	0.367559	7.659113
1731.000000	4.682723	0.371087	7.659113
1732.000000	4.685760	0.370989	7.659113
1733.000000	4.688808	0.374629	7.659113
1734.000000	4.691863	0.369580	7.659113
1735.000000	4.694895	0.371248	7.659113
1736.000000	4.697869	0.352532	7.659113
1737.000000	4.700769	0.379954	7.659113
1738.000000	4.703611	0.378344	7.659113
1739.000000	4.706407	0.359147	7.659113
1740.000000	4.709162	0.388421	7.659113
1741.000000	4.711900	0.366372	7.659113
1742.000000	4.714644	0.381730	7.659113
1743.000000	4.717382	0.386735	7.659113
1744.000000	4.720111	0.375160	7.659113
1745.000000	4.722820	0.371821	7.659113
1746.000000	4.725473	0.363212	7.659113
1747.000000	4.728051	0.371906	7.659113
1748.000000	4.730570	0.385558	7.659113
1749.000000	4.733055	0.376974	7.659113
1750.000000	4.735507	0.358116	7.659113
1751.000000	4.737911	0.369985	7.659113
1752.000000	4.740283	0.375365	7.659113
1753.000000	4.742660	0.384130	7.659113
1754.000000	4.745044	0.389087	7.659113
1755.000000	4.747420	0.389405	7.659113
1756.000000	4.749776	0.375905	7.659113
1757.000000	4.752101	0.379197	7.659113
1758.000000	4.754389	0.372226	7.659113
1759.000000	4.756638	0.365472	7.659113
1760.000000	4.758844	0.366909	7.659113
1761.000000	4.761010	0.372080	7.659113
1762.000000	4.763161	0.380955	7.659113
1763.000000	4.765310	0.391231	7.659113
1764.000000	4.767450	0.372717	7.659113
1765.000000	4.769582	0.381117	7.659113
1766.000000	4.771704	0.393458	7.659113
1767.000000	4.773807	0.376103	7.659113
1768.000000	4.775883	0.386723	7.659113
1769.000000	4.777919	0.372858	7.659113
1770.000000	4.779912	0.395395	7.659113
1771.000000	4.781866	0.372966	7.659113
1772.000000	4.783778	0.390091	7.659113
1773.000000	4.785651	0.381357	7.659113
1774.000000	4.787505	0.369587	7.659113
1775.000000	4.789363	0.393427	7.659113
1776.000000	4.791236	0.396940	7.659113
1777.000000	4.793120	0.393587	7.659113
1778.000000	4.794999	0.392119	7.659113
1779.000000	4.796871	0.398777	7.659113
1780.000000	4.798729	0.404095	7.659113
1781.000000	4.800541	0.380164	7.659113
1782.000000	4.802300	0.383648	7.659113
1783.000000	4.804022	0.390562	7.659113
1784.000000	4.805709	0.402472	7.659113
1785.000000	4.807362	0.385306	7.659113
1786.000000	4.808993	0.383608	7.659113
1787.000000	4.810624	0.392430	7.659113
1788.000000	4.812262	0.409348	7.659113
1789.000000	4.813907	0.397433	7.659113
1790.000000	4.815562	0.390812	7.659113
1791.000000	4.817217	0.385658	7.659113
1792.000000	4.818864	0.380817	7.659113
1793.000000	4.820499	0.370409	7.659113
1794.000000	4.822105	0.375318	7.659113
1795.000000	4.823665	0.394574	7.659113
1796.000000	4.825180	0.396126	7.659113
1797.000000	4.826657	0.384035	7.659113
1798.000000	4.828099	0.380916	7.659113
1799.000000	4.829511	0.382176	7.659113
1800.000000	4.830902	0.385853	7.659113
1801.000000	4.832270	0.413215	7.659113
1802.000000	4.833610	0.392605	7.659113
1803.000000	4.834926	0.374053	7.659113
1804.000000	4.836219	0.389430	7.659113
1805.000000	4.837486	0.398160	7.659113
1806.000000	4.838721	0.396414	7.659113
1807.000000	4.839897	0.372555	7.659113
1808.000000	4.840997	0.384216	7.659113
1809.000000	4.842035	0.382630	7.659113
1810.000000	4.843031	0.383751	7.659113
1811.000000	4.843989	0.377535	7.659113
1812.000000	4.844905	0.392934	7.659113
1813.000000	4.845785	0.384447	7.659113
1814.000000	4.846639	0.387795	7.659113
1815.000000	4.847469	0.368941	7.659113
1816.000000	4.848253	0.363873	7.659113
1817.000000	4.848967	0.393104	7.659113
1818.000000	4.849603	0.375693	7.659113
1819.000000	4.850158	0.375934	7.659113
1820.000000	4.850640	0.391244	7.659113
1821.000000	4.851055	0.380958	7.659113
1822.000000	4.851416	0.387595	7.659113
1823.000000	4.851740	0.366979	7.659113
1824.000000	4.852046	0.377582	7.659113
1825.000000	4.852349	0.386079	7.659113
1826.000000	4.852654	0.391257	7.659113
1827.000000	4.852957	0.374185	7.659113
1828.000000	4.853232	0.377623	7.659113
1829.000000	4.853453	0.360670	7.659113
1830.000000	4.853600	0.360544	7.659113
1831.000000	4.853662	0.362169	7.659113
1832.000000	4.853658	0.365562	7.659113
1833.000000	4.853600	0.351938	7.659113
1834.000000	4.853489	0.344990	7.659113
1835.000000	4.853342	0.360302	7.659113
1836.000000	4.853180	0.342834	7.659113
1837.000000	4.853012	0.356952	7.659113
1838.000000	4.852831	0.355007	7.659113
1839.000000	4.852640	0.350007	7.659113
1840.000000	4.852448	0.343418	7.659113
1841.000000	4.852244	0.348290	7.659113
1842.000000	4.852017	0.348330	7.659113
1843.000000	4.851759	0.339690	7.659113
1844.000000	4.851464	0.336258	7.659113
1845.000000	4.851140	0.332925	7.659113
1846.000000	4.850793	0.329562	7.659113
1847.000000	4.850449	0.330813	7.659113
1848.000000	4.850130	0.336388	7.659113
1849.000000	4.849839	0.334598	7.659113
1850.000000	4.849585	0.329335	7.659113
1851.000000	4.849385	0.355332	7.659113
1852.000000	4.849239	0.348981	7.659113
1853.000000	4.849145	0.340135	7.659113
1854.000000	4.849109	0.340142	7.659113
1855.000000	4.849138	0.338527	7.659113
1856.000000	4.849233	0.319708	7.659113
1857.000000	4.849399	0.341643	7.659113
1858.000000	4.849621	0.324698	7.659113
1859.000000	4.849885	0.326646	7.659113
1860.000000	4.850209	0.322754	7.659113
1861.000000	4.850613	0.335234	7.659113
1862.000000	4.851097	0.326682	7.659113
1863.000000	4.851663	0.323027	7.659113
1864.000000	4.852325	0.323155	7.659113
1865.000000	4.853076	0.333634	7.659113
1866.000000	4.853890	0.330206	7.659113
1867.000000	4.854759	0.326800	7.659113
1868.000000	4.855676	0.330399	7.659113
1869.000000	4.856615	0.308121	7.659113
1870.000000	4.857566	0.327171	7.659113
1871.000000	4.858534	0.318450	7.659113
1872.000000	4.859533	0.313282	7.659113
1873.000000	4.860577	0.340807	7.659113
1874.000000	4.861680	0.323834	7.659113
1875.000000	4.862848	0.315097	7.659113
1876.000000	4.864084	0.310326	7.659113
1877.000000	4.865395	0.320397	7.659113
1878.000000	4.866788	0.332609	7.659113
1879.000000	4.868277	0.322356	7.659113
1880.000000	4.869857	0.338351	7.659113
1881.000000	4.871495	0.336160	7.659113
1882.000000	4.873170	0.307063	7.659113
1883.000000	4.874872	0.312198	7.659113
1884.000000	4.876590	0.329516	7.659113
1885.000000	4.878331	0.329228	7.659113
1886.000000	4.880100	0.310345	7.659113
1887.000000	4.881900	0.315574	7.659113
1888.000000	4.883748	0.339631	7.659113
1889.000000	4.885651	0.303825	7.659113
1890.000000	4.887599	0.315939	7.659113
1891.000000	4.889583	0.335059	7.659113
1892.000000	4.891591	0.323057	7.659113
1893.000000	4.893598	0.319570	7.659113
1894.000000	4.895595	0.312477	7.659113
1895.000000	4.897604	0.321298	7.659113
1896.000000	4.899631	0.309130	7.659113
1897.000000	4.901680	0.328176	7.659113
1898.000000	4.903758	0.319814	7.659113
1899.000000	4.905874	0.331456	7.659113
1900.000000	4.908037	0.311029	7.659113
1901.000000	4.910249	0.323491	7.659113
1902.000000	4.912498	0.318153	7.659113
1903.000000	4.914775	0.332250	7.659113
1904.000000	4.917058	0.321955	7.659113
1905.000000	4.919318	0.308157	7.659113
1906.000000	4.921537	0.311811	7.659113
1907.000000	4.923704	0.323513	7.659113
1908.000000	4.925817	0.299431	7.659113
1909.000000	4.927884	0.327012	7.659113
1910.000000	4.929923	0.304656	7.659113
1911.000000	4.931951	0.313498	7.659113
1912.000000	4.933980	0.328701	7.659113
1913.000000	4.936017	0.311667	7.659113
1914.000000	4.938047	0.325591	7.659113
1915.000000	4.940061	0.329037	7.659113
1916.000000	4.942068	0.322303	7.659113
1917.000000	4.944064	0.320696	7.659113
1918.000000	4.946046	0.316930	7.659113
1919.000000	4.948008	0.311831	7.659113
1920.000000	4.949929	0.308649	7.659113
1921.000000	4.951798	0.299720	7.659113
1922.000000	4.953627	0.318927	7.659113
1923.000000	4.955448	0.308413	7.659113
1924.000000	4.957286	0.313959	7.659113
1925.000000	4.959153	0.329268	7.659113
1926.000000	4.961048	0.315740	7.659113
1927.000000	4.962970	0.348349	7.659113
1928.000000	4.964918	0.324621	7.659113
1929.000000	4.966881	0.316128	7.659113
1930.000000	4.968839	0.322884	7.659113
1931.000000	4.970773	0.314454	7.659113
1932.000000	4.972677	0.327825	7.659113
1933.000000	4.974545	0.297434	7.659113
1934.000000	4.976378	0.312718	7.659113
1935.000000	4.978193	0.328398	7.659113
1936.000000	4.980000	0.319740	7.659113
1937.000000	4.981819	0.321414	7.659113
1938.000000	4.983672	0.336840	7.659113
1939.000000	4.985555	0.330128	7.659113
1940.000000	4.987459	0.338853	7.659113
1941.000000	4.989379	0.325126	7.659113
1942.000000	4.991314	0.326937	7.659113
1943.000000	4.993268	0.313295	7.659113
1944.000000	4.995241	0.321916	7.659113
1945.000000	4.997240	0.311665	7.659113
1946.000000	4.999252	0.313414	7.659113
1947.000000	5.001253	0.313482	7.659113
1948.000000	5.003236	0.306667	7.659113
1949.000000	5.005191	0.310000	7.659113
1950.000000	5.007118	0.289508	7.659113
1951.000000	5.009032	0.311615	7.659113
1952.000000	5.010941	0.306628	7.659113
1953.000000	5.012860	0.325797	7.659113
1954.000000	5.014798	0.311692	7.659113
1955.000000	5.016747	0.327528	7.659113
1956.000000	5.018694	0.331125	7.659113
1957.000000	5.020637	0.298388	7.659113
1958.000000	5.022576	0.308883	7.659113
1959.000000	5.024502	0.305486	7.659113
1960.000000	5.026412	0.310616	7.659113
1961.000000	5.028311	0.305361	7.659113
1962.000000	5.030214	0.302028	7.659113
1963.000000	5.032126	0.306697	7.659113
1964.000000	5.034047	0.319202	7.659113
1965.000000	5.035985	0.305544	7.659113
1966.000000	5.037948	0.329640	7.659113
1967.000000	5.039927	0.310973	7.659113
1968.000000	5.041912	0.304197	7.659113
1969.000000	5.043895	0.300784	7.659113
1970.000000	5.045878	0.309366	7.659113
1971.000000	5.047865	0.304331	7.659113
1972.000000	5.049839	0.326517	7.659113
1973.000000	5.051795	0.307659	7.659113
1974.000000	5.053733	0.293873	7.659113
1975.000000	5.055652	0.299149	7.659113
1976.000000	5.057554	0.309600	7.659113
1977.000000	5.059448	0.305817	7.659113
1978.000000	5.061350	0.302530	7.659113
1979.000000	5.063265	0.313025	7.659113
1980.000000	5.065204	0.288873	7.659113
1981.000000	5.067174	0.309712	7.659113
1982.000000	5.069162	0.301283	7.659113
1983.000000	5.071159	0.297667	7.659113
1984.000000	5.073148	0.294702	7.659113
1985.000000	5.075117	0.315136	7.659113
1986.000000	5.077070	0.294602	7.659113
1987.000000	5.078991	0.306732	7.659113
1988.000000	5.080868	0.301652	7.659113
1989.000000	5.082710	0.303143	7.659113
1990.000000	5.084547	0.309971	7.659113
1991.000000	5.086393	0.299766	7.659113
1992.000000	5.088244	0.303146	7.659113
1993.000000	5.090106	0.306923	7.659113
1994.000000	5.091978	0.312055	7.659113
1995.000000	5.093853	0.279718	7.659113
1996.000000	5.095727	0.301794	7.659113
1997.000000	5.097596	0.305286	7.659113
1998.000000	5.099453	0.312302	7.659113
1999.000000	5.101293	0.289881	7.659113
2000.000000	5.103113	0.290023	7.659113
2001.000000	5.104920	0.303630	7.659113
2002.000000	5.106736	0.305307	7.659113
2003.000000	5.108561	0.301981	7.659113
2004.000000	5.110384	0.315886	7.659113
2005.000000	5.112211	0.305382	7.659113
2006.000000	5.114051	0.315739	7.659113
2007.000000	5.115908	0.295451	7.659113
2008.000000	5.117767	0.295499	7.659113
2009.000000	5.119618	0.300799	7.659113
2010.000000	5.121460	0.281799	7.659113
2011.000000	5.123281	0.300571	7.659113
2012.000000	5.125069	0.300634	7.659113
2013.000000	5.126814	0.295511	7.659113
2014.000000	5.128514	0.288508	7.659113
2015.000000	5.130180	0.292265	7.659113
2016.000000	5.131825	0.295649	7.659113
2017.000000	5.133456	0.305416	7.659113
2018.000000	5.135084	0.309416	7.659113
2019.000000	5.136699	0.309503	7.659113
2020.000000	5.138294	0.304364	7.659113
2021.000000	5.139874	0.299227	7.659113
2022.000000	5.141432	0.299276	7.659113
2023.000000	5.142955	0.304446	7.659113
2024.000000	5.144437	0.290682	7.659113
2025.000000	5.145883	0.311218	7.659113
2026.000000	5.147303	0.307793	7.659113
2027.000000	5.148705	0.297533	7.659113
2028.000000	5.150094	0.309725	7.659113
2029.000000	5.151480	0.309838	7.659113
2030.000000	5.152860	0.301181	7.659113
2031.000000	5.154233	0.309968	7.659113
2032.000000	5.155594	0.315075	7.659113
2033.000000	5.156930	0.287558	7.659113
2034.000000	5.158237	0.299731	7.659113
2035.000000	5.159507	0.301397	7.659113
2036.000000	5.160739	0.311236	7.659113
2037.000000	5.161956	0.287533	7.659113
2038.000000	5.163169	0.311526	7.659113
2039.000000	5.164380	0.306467	7.659113
2040.000000	5.165600	0.313537	7.659113
2041.000000	5.166844	0.321975	7.659113
2042.000000	5.168125	0.315224	7.659113
2043.000000	5.169432	0.310273	7.659113
2044.000000	5.170729	0.312017	7.659113
2045.000000	5.172004	0.313656	7.659113
2046.000000	5.173274	0.308650	7.659113
2047.000000	5.174552	0.325490	7.659113
2048.000000	5.175854	0.313726	7.659113
2049.000000	5.177205	0.318769	7.659113
2050.000000	5.178618	0.327382	7.659113
2051.000000	5.180081	0.313687	7.659113
2052.000000	5.181583	0.307044	7.659113
2053.000000	5.183130	0.308753	7.659113
2054.000000	5.184719	0.329268	7.659113
2055.000000	5.186333	0.310814	7.659113
2056.000000	5.187955	0.303961	7.659113
2057.000000	5.189571	0.315817	7.659113
2058.000000	5.191193	0.319403	7.659113
2059.000000	5.192832	0.301817	7.659113
2060.000000	5.194481	0.308834	7.659113
2061.000000	5.196140	0.312572	7.659113
2062.000000	5.197822	0.324540	7.659113
2063.000000	5.199540	0.324458	7.659113
2064.000000	5.201299	0.331579	7.659113
2065.000000	5.203099	0.331644	7.659113
2066.000000	5.204933	0.328304	7.659113
2067.000000	5.206785	0.323136	7.659113
2068.000000	5.208650	0.305962	7.659113
2069.000000	5.210526	0.325206	7.659113
2070.000000	5.212399	0.335558	7.659113
2071.000000	5.214253	0.311460	7.659113
2072.000000	5.216071	0.319694	7.659113
2073.000000	5.217855	0.321700	7.659113
2074.000000	5.219613	0.323460	7.659113
2075.000000	5.221352	0.336899	7.659113
2076.000000	5.223099	0.321785	7.659113
2077.000000	5.224875	0.333841	7.659113
2078.000000	5.226678	0.325484	7.659113
2079.000000	5.228499	0.323586	7.659113
2080.000000	5.230319	0.327424	7.659113
2081.000000	5.232121	0.317048	7.659113
2082.000000	5.233903	0.334201	7.659113
2083.000000	5.235665	0.346006	7.659113
2084.000000	5.237405	0.344271	7.659113
2085.000000	5.239133	0.315114	7.659113
2086.000000	5.240854	0.323635	7.659113
2087.000000	5.242569	0.317229	7.659113
2088.000000	5.244283	0.320423	7.659113
2089.000000	5.246008	0.335995	7.659113
2090.000000	5.247759	0.327425	7.659113
2091.000000	5.249545	0.337952	7.659113
2092.000000	5.251370	0.349780	7.659113
2093.000000	5.253228	0.344990	7.659113
2094.000000	5.255102	0.312350	7.659113
2095.000000	5.256987	0.327884	7.659113
2096.000000	5.258886	0.329553	7.659113
2097.000000	5.260800	0.339733	7.659113
2098.000000	5.262723	0.338269	7.659113
2099.000000	5.264653	0.334440	7.659113
2100.000000	5.266616	0.334882	7.659113
2101.000000	5.268642	0.347072	7.659113
2102.000000	5.270740	0.335147	7.659113
2103.000000	5.272909	0.338638	7.659113
2104.000000	5.275136	0.353956	7.659113
2105.000000	5.277405	0.331903	7.659113
2106.000000	5.279718	0.347264	7.659113
2107.000000	5.282071	0.337118	7.659113
2108.000000	5.284444	0.349363	7.659113
2109.000000	5.286813	0.323550	7.659113
2110.000000	5.289161	0.338943	7.659113
2111.000000	5.291491	0.333809	7.659113
2112.000000	5.293811	0.328684	7.659113
2113.000000	5.296122	0.315178	7.659113
2114.000000	5.298429	0.342373	7.659113
2115.000000	5.300750	0.332318	7.659113
2116.000000	5.303091	0.339054	7.659113
2117.000000	5.305456	0.339298	7.659113
2118.000000	5.307861	0.354894	7.659113
2119.000000	5.310297	0.332533	7.659113
2120.000000	5.312729	0.344574	7.659113
2121.000000	5.315136	0.336015	7.659113
2122.000000	5.317512	0.331143	7.659113
2123.000000	5.319860	0.344947	7.659113
2124.000000	5.322185	0.339754	7.659113
2125.000000	5.324497	0.332789	7.659113
2126.000000	5.326811	0.325708	7.659113
2127.000000	5.329152	0.332545	7.659113
2128.000000	5.331540	0.356893	7.659113
2129.000000	5.333981	0.369063	7.659113
2130.000000	5.336465	0.348465	7.659113
2131.000000	5.338975	0.347020	7.659113
2132.000000	5.341491	0.347186	7.659113
2133.000000	5.344009	0.352380	7.659113
2134.000000	5.346533	0.334911	7.659113
2135.000000	5.349070	0.346912	7.659113
2136.000000	5.351617	0.350712	7.659113
2137.000000	5.354154	0.326830	7.659113
2138.000000	5.356652	0.337341	7.659113
2139.000000	5.359105	0.326674	7.659113
2140.000000	5.361547	0.353868	7.659113
2141.000000	5.364005	0.340450	7.659113
2142.000000	5.366481	0.352647	7.659113
2143.000000	5.368979	0.350984	7.659113
2144.000000	5.371505	0.361374	7.659113
2145.000000	5.374073	0.349536	7.659113
2146.000000	5.376678	0.358143	7.659113
2147.000000	5.379303	0.358053	7.659113
2148.000000	5.381942	0.356759	7.659113
2149.000000	5.384594	0.344709	7.659113
2150.000000	5.387238	0.349676	7.659113
2151.000000	5.389865	0.348239	7.659113
2152.000000	5.392474	0.355094	7.659113
2153.000000	5.395068	0.355009	7.659113
2154.000000	5.397653	0.334284	7.659113
2155.000000	5.400242	0.360091	7.659113
2156.000000	5.402856	0.355183	7.659113
2157.000000	5.405498	0.362066	7.659113
2158.000000	5.408163	0.374076	7.659113
2159.000000	5.410855	0.357161	7.659113
2160.000000	5.413575	0.360767	7.659113
2161.000000	5.416316	0.362457	7.659113
2162.000000	5.419065	0.355651	7.659113
2163.000000	5.421797	0.359275	7.659113
2164.000000	5.424493	0.333172	7.659113
2165.000000	5.427138	0.359299	7.659113
2166.000000	5.429736	0.357534	7.659113
2167.000000	5.432312	0.347312	7.659113
2168.000000	5.434895	0.367740	7.659113
2169.000000	5.437501	0.383940	7.659113
2170.000000	5.440127	0.381481	7.659113
2171.000000	5.442781	0.359350	7.659113
2172.000000	5.445462	0.351158	7.659113
2173.000000	5.448161	0.359645	7.659113
2174.000000	5.450887	0.373586	7.659113
2175.000000	5.453643	0.361574	7.659113
2176.000000	5.456424	0.375392	7.659113
2177.000000	5.459217	0.366827	7.659113
2178.000000	5.461991	0.351394	7.659113
2179.000000	5.464727	0.371959	7.659113
2180.000000	5.467427	0.370407	7.659113
2181.000000	5.470101	0.368582	7.659113
2182.000000	5.472753	0.368848	7.659113
2183.000000	5.475387	0.349792	7.659113
2184.000000	5.478020	0.380834	7.659113
2185.000000	5.480651	0.368904	7.659113
2186.000000	5.483256	0.382688	7.659113
2187.000000	5.485855	0.358835	7.659113
2188.000000	5.488470	0.394745	7.659113
2189.000000	5.491089	0.369280	7.659113
2190.000000	5.493697	0.362477	7.659113
2191.000000	5.496278	0.362514	7.659113
2192.000000	5.498845	0.374310	7.659113
2193.000000	5.501420	0.364335	7.659113
2194.000000	5.504000	0.365951	7.659113
2195.000000	5.506591	0.379589	7.659113
2196.000000	5.509201	0.376350	7.659113
2197.000000	5.511833	0.379923	7.659113
2198.000000	5.514492	0.390421	7.659113
2199.000000	5.517176	0.388839	7.659113
2200.000000	5.519875	0.370101	7.659113
2201.000000	5.522579	0.361583	7.659113
2202.000000	5.525269	0.377062	7.659113
2203.000000	5.527933	0.383888	7.659113
2204.000000	5.530597	0.356235	7.659113
2205.000000	5.533287	0.387240	7.659113
2206.000000	5.535991	0.370165	7.659113
2207.000000	5.538701	0.378616	7.659113
2208.000000	5.541419	0.378814	7.659113
2209.000000	5.544149	0.379002	7.659113
2210.000000	5.546891	0.394586	7.659113
2211.000000	5.549644	0.394492	7.659113
2212.000000	5.552393	0.384252	7.659113
2213.000000	5.555128	0.386183	7.659113
2214.000000	5.557847	0.374304	7.659113
2215.000000	5.560551	0.384490	7.659113
2216.000000	5.563241	0.379583	7.659113
2217.000000	5.565936	0.394770	7.659113
2218.000000	5.568645	0.384614	7.659113
2219.000000	5.571366	0.395046	7.659113
2220.000000	5.574102	0.386580	7.659113
2221.000000	5.576858	0.400486	7.659113
2222.000000	5.579644	0.395271	7.659113
2223.000000	5.582454	0.380089	7.659113
2224.000000	5.585282	0.385354	7.659113
2225.000000	5.588132	0.392008	7.659113
2226.000000	5.590994	0.387001	7.659113
2227.000000	5.593846	0.378544	7.659113
2228.000000	5.596666	0.393882	7.659113
2229.000000	5.599452	0.380306	7.659113
2230.000000	5.602204	0.382008	7.659113
2231.000000	5.604920	0.387167	7.659113
2232.000000	5.607614	0.383822	7.659113
2233.000000	5.610295	0.394183	7.659113
2234.000000	5.612963	0.400937	7.659113
2235.000000	5.615615	0.408033	7.659113
2236.000000	5.618249	0.399210	7.659113
2237.000000	5.620877	0.421693	7.659113
2238.000000	5.623493	0.379262	7.659113
2239.000000	5.626079	0.374091	7.659113
2240.000000	5.628617	0.374304	7.659113
2241.000000	5.631108	0.398035	7.659113
2242.000000	5.633567	0.393221	7.659113
2243.000000	5.636000	0.393042	7.659113
2244.000000	5.638424	0.389474	7.659113
2245.000000	5.640856	0.404958	7.659113
2246.000000	5.643316	0.396607	7.659113
2247.000000	5.645818	0.403550	7.659113
2248.000000	5.648343	0.395293	7.659113
2249.000000	5.650868	0.379727	7.659113
2250.000000	5.653395	0.398970	7.659113
2251.000000	5.655914	0.381688	7.659113
2252.000000	5.658410	0.384897	7.659113
2253.000000	5.660876	0.383612	7.659113
2254.000000	5.663313	0.380010	7.659113
2255.000000	5.665736	0.405708	7.659113
2256.000000	5.668147	0.393864	7.659113
2257.000000	5.670540	0.383431	7.659113
2258.000000	5.672919	0.380186	7.659113
2259.000000	5.675293	0.383613	7.659113
2260.000000	5.677669	0.394145	7.659113
2261.000000	5.680062	0.395907	7.659113
2262.000000	5.682473	0.387646	7.659113
2263.000000	5.684905	0.397866	7.659113
2264.000000	5.687373	0.375696	7.659113
2265.000000	5.689868	0.384223	7.659113
2266.000000	5.692376	0.380998	7.659113
2267.000000	5.694886	0.389539	7.659113
2268.000000	5.697395	0.373914	7.659113
2269.000000	5.699919	0.392888	7.659113
2270.000000	5.702474	0.377616	7.659113
2271.000000	5.705070	0.386244	7.659113
2272.000000	5.707712	0.392995	7.659113
2273.000000	5.710396	0.386398	7.659113
2274.000000	5.713118	0.369486	7.659113
2275.000000	5.715873	0.381640	7.659113
2276.000000	5.718654	0.372884	7.659113
2277.000000	5.721456	0.380003	7.659113
2278.000000	5.724257	0.373214	7.659113
2279.000000	5.727039	0.375072	7.659113
2280.000000	5.729795	0.373092	7.659113
2281.000000	5.732517	0.345860	7.659113
2282.000000	5.735220	0.376714	7.659113
2283.000000	5.737929	0.383602	7.659113
2284.000000	5.740665	0.371767	7.659113
2285.000000	5.743438	0.364979	7.659113
2286.000000	5.746257	0.372231	7.659113
2287.000000	5.749133	0.365186	7.659113
2288.000000	5.752057	0.367439	7.659113
2289.000000	5.755005	0.370573	7.659113
2290.000000	5.757975	0.363929	7.659113
2291.000000	5.760979	0.353618	7.659113
2292.000000	5.764011	0.351875	7.659113
2293.000000	5.767062	0.348719	7.659113
2294.000000	5.770140	0.364188	7.659113
2295.000000	5.773261	0.359153	7.659113
2296.000000	5.776428	0.365908	7.659113
2297.000000	5.779645	0.367805	7.659113
2298.000000	5.782916	0.360857	7.659113
2299.000000	5.786244	0.364488	7.659113
2300.000000	5.789619	0.361393	7.659113
2301.000000	5.793038	0.374979	7.659113
2302.000000	5.796492	0.354596	7.659113
2303.000000	5.799953	0.365084	7.659113
2304.000000	5.803417	0.358323	7.659113
2305.000000	5.806892	0.358223	7.659113
2306.000000	5.810353	0.362057	7.659113
2307.000000	5.813790	0.351512	7.659113
2308.000000	5.817227	0.355101	7.659113
2309.000000	5.820691	0.380856	7.659113
2310.000000	5.824202	0.382817	7.659113
2311.000000	5.827777	0.362308	7.659113
2312.000000	5.831401	0.360680	7.659113
2313.000000	5.835062	0.362596	7.659113
2314.000000	5.838762	0.369545	7.659113
2315.000000	5.842491	0.369701	7.659113
2316.000000	5.846236	0.364666	7.659113
2317.000000	5.849999	0.359584	7.659113
2318.000000	5.853779	0.357758	7.659113
2319.000000	5.857575	0.351155	7.659113
2320.000000	5.861392	0.356108	7.659113
2321.000000	5.865224	0.362923	7.659113
2322.000000	5.869071	0.378639	7.659113
2323.000000	5.872952	0.373743	7.659113
2324.000000	5.876874	0.380598	7.659113
2325.000000	5.880843	0.384043	7.659113
2326.000000	5.884852	0.369104	7.659113
2327.000000	5.888881	0.358650	7.659113
2328.000000	5.892909	0.362244	7.659113
2329.000000	5.896927	0.360878	7.659113
2330.000000	5.900931	0.364439	7.659113
2331.000000	5.904899	0.372971	7.659113
2332.000000	5.908823	0.357521	7.659113
2333.000000	5.912714	0.355754	7.659113
2334.000000	5.916588	0.369515	7.659113
2335.000000	5.920465	0.354132	7.659113
2336.000000	5.924360	0.368270	7.659113
2337.000000	5.928280	0.361452	7.659113
2338.000000	5.932227	0.375104	7.659113
2339.000000	5.936201	0.368219	7.659113
2340.000000	5.940193	0.366623	7.659113
2341.000000	5.944196	0.363539	7.659113
2342.000000	5.948209	0.356410	7.659113
2343.000000	5.952218	0.360193	7.659113
2344.000000	5.956206	0.375830	7.659113
2345.000000	5.960156	0.363611	7.659113
2346.000000	5.964044	0.363802	7.659113
2347.000000	5.967855	0.358591	7.659113
2348.000000	5.971605	0.350249	7.659113
2349.000000	5.975319	0.372499	7.659113
2350.000000	5.979002	0.372605	7.659113
2351.000000	5.982653	0.364284	7.659113
2352.000000	5.986280	0.359167	7.659113
2353.000000	5.989891	0.364499	7.659113
2354.000000	5.993472	0.366409	7.659113
2355.000000	5.996999	0.349296	7.659113
2356.000000	6.000472	0.363046	7.659113
2357.000000	6.003890	0.354480	7.659113
2358.000000	6.007244	0.364640	7.659113
2359.000000	6.010535	0.350930	7.659113
2360.000000	6.013765	0.368087	7.659113
2361.000000	6.016931	0.368237	7.659113
2362.000000	6.020059	0.366522	7.659113
2363.000000	6.023176	0.373503	7.659113
2364.000000	6.026279	0.375676	7.659113
2365.000000	6.029358	0.363545	7.659113
2366.000000	6.032410	0.368595	7.659113
2367.000000	6.035434	0.367066	7.659113
2368.000000	6.038432	0.360161	7.659113
2369.000000	6.041395	0.356904	7.659113
2370.000000	6.044323	0.372214	7.659113
2371.000000	6.047232	0.365584	7.659113
2372.000000	6.050135	0.349944	7.659113
2373.000000	6.053044	0.360685	7.659113
2374.000000	6.055964	0.369127	7.659113
2375.000000	6.058891	0.360738	7.659113
2376.000000	6.061840	0.386729	7.659113
2377.000000	6.064826	0.364536	7.659113
2378.000000	6.067851	0.373083	7.659113
2379.000000	6.070923	0.357959	7.659113
2380.000000	6.074050	0.371666	7.659113
2381.000000	6.077233	0.378822	7.659113
2382.000000	6.080482	0.365221	7.659113
2383.000000	6.083817	0.375344	7.659113
2384.000000	6.087236	0.385853	7.659113
2385.000000	6.090739	0.366883	7.659113
2386.000000	6.094332	0.377688	7.659113
2387.000000	6.098019	0.377502	7.659113
2388.000000	6.101812	0.379516	7.659113
2389.000000	6.105726	0.395065	7.659113
2390.000000	6.109758	0.388450	7.659113
2391.000000	6.113903	0.376553	7.659113
2392.000000	6.118156	0.385245	7.659113
2393.000000	6.122500	0.392231	7.659113
2394.000000	6.126915	0.400896	7.659113
2395.000000	6.131390	0.371993	7.659113
2396.000000	6.135914	0.386076	7.659113
2397.000000	6.140473	0.377614	7.659113
2398.000000	6.145062	0.375656	7.659113
2399.000000	6.149687	0.387923	7.659113
2400.000000	6.154360	0.408176	7.659113
2401.000000	6.159092	0.398406	7.659113
2402.000000	6.163894	0.403965	7.659113
2403.000000	6.168762	0.396926	7.659113
2404.000000	6.173690	0.386870	7.659113
2405.000000	6.178651	0.387014	7.659113
2406.000000	6.183619	0.392169	7.659113
2407.000000	6.188593	0.397448	7.659113
2408.000000	6.193566	0.387359	7.659113
2409.000000	6.198532	0.395942	7.659113
2410.000000	6.203494	0.399351	7.659113
2411.000000	6.208458	0.376867	7.659113
2412.000000	6.213427	0.387638	7.659113
2413.000000	6.218404	0.392888	7.659113
2414.000000	6.223397	0.384279	7.659113
2415.000000	6.228407	0.391463	7.659113
2416.000000	6.233429	0.384764	7.659113
2417.000000	6.238445	0.396860	7.659113
2418.000000	6.243432	0.378184	7.659113
2419.000000	6.248371	0.402173	7.659113
2420.000000	6.253252	0.374925	7.659113
2421.000000	6.258062	0.364803	7.659113
2422.000000	6.262800	0.397106	7.659113
2423.000000	6.267491	0.387210	7.659113
2424.000000	6.272152	0.381617	7.659113
2425.000000	6.276792	0.377147	7.659113
2426.000000	6.281423	0.392755	7.659113
2427.000000	6.286030	0.386137	7.659113
2428.000000	6.290595	0.386019	7.659113
2429.000000	6.295120	0.379292	7.659113
2430.000000	6.299595	0.363657	7.659113
2431.000000	6.304004	0.382908	7.659113
2432.000000	6.308338	0.370713	7.659113
2433.000000	6.312602	0.368818	7.659113
2434.000000	6.316816	0.369380	7.659113
2435.000000	6.320990	0.386396	7.659113
2436.000000	6.325124	0.379712	7.659113
2437.000000	6.329220	0.383289	7.659113
2438.000000	6.333277	0.385036	7.659113
2439.000000	6.337291	0.373513	7.659113
2440.000000	6.341231	0.377007	7.659113
2441.000000	6.345059	0.363031	7.659113
2442.000000	6.348791	0.375043	7.659113
2443.000000	6.352447	0.340956	7.659113
2444.000000	6.356022	0.366596	7.659113
2445.000000	6.359516	0.377047	7.659113
2446.000000	6.362944	0.368493	7.659113
2447.000000	6.366313	0.382127	7.659113
2448.000000	6.369638	0.377356	7.659113
2449.000000	6.372917	0.367019	7.659113
2450.000000	6.376147	0.372251	7.659113
2451.000000	6.379297	0.356892	7.659113
2452.000000	6.382334	0.360474	7.659113
2453.000000	6.385269	0.374245	7.659113
2454.000000	6.388114	0.362113	7.659113
2455.000000	6.390874	0.372534	7.659113
2456.000000	6.393563	0.348650	7.659113
2457.000000	6.396199	0.376086	7.659113
2458.000000	6.398800	0.377415	7.659113
2459.000000	6.401381	0.363965	7.659113
2460.000000	6.403942	0.371014	7.659113
2461.000000	6.406468	0.357463	7.659113
2462.000000	6.408940	0.342264	7.659113
2463.000000	6.411342	0.354106	7.659113
2464.000000	6.413673	0.360877	7.659113
2465.000000	6.415946	0.354181	7.659113
2466.000000	6.418180	0.355925	7.659113
2467.000000	6.420389	0.345796	7.659113
2468.000000	6.422571	0.368031	7.659113
2469.000000	6.424742	0.347673	7.659113
2470.000000	6.426922	0.335913	7.659113
2471.000000	6.429114	0.351004	7.659113
2472.000000	6.431316	0.349709	7.659113
2473.000000	6.433527	0.364911	7.659113
2474.000000	6.435752	0.349556	7.659113
2475.000000	6.437984	0.349851	7.659113
2476.000000	6.440204	0.329314	7.659113
2477.000000	6.442400	0.339631	7.659113
2478.000000	6.444565	0.353339	7.659113
2479.000000	6.446706	0.344626	7.659113
2480.000000	6.448833	0.344976	7.659113
2481.000000	6.450957	0.356795	7.659113
2482.000000	6.453094	0.360263	7.659113
2483.000000	6.455253	0.357058	7.659113
2484.000000	6.457426	0.352145	7.659113
2485.000000	6.459606	0.353960	7.659113
2486.000000	6.461780	0.329946	7.659113
2487.000000	6.463928	0.335085	7.659113
2488.000000	6.466046	0.345349	7.659113
2489.000000	6.468133	0.340150	7.659113
2490.000000	6.470184	0.321166	7.659113
2491.000000	6.472199	0.328246	7.659113
2492.000000	6.474179	0.328205	7.659113
2493.000000	6.476151	0.331643	7.659113
2494.000000	6.478133	0.328177	7.659113
2495.000000	6.480125	0.335560	7.659113
2496.000000	6.482113	0.327031	7.659113
2497.000000	6.484088	0.344097	7.659113
2498.000000	6.486060	0.342533	7.659113
2499.000000	6.488022	0.323719	7.659113
2500.000000	6.489954	0.334136	7.659113
2501.000000	6.491850	0.327270	7.659113
2502.000000	6.493707	0.339140	7.659113
2503.000000	6.495520	0.323832	7.659113
2504.000000	6.497282	0.318641	7.659113
2505.000000	6.498991	0.313331	7.659113
2506.000000	6.500652	0.316864	7.659113
2507.000000	6.502265	0.327060	7.659113
2508.000000	6.503843	0.318426	7.659113
2509.000000	6.505406	0.335700	7.659113
2510.000000	6.506951	0.325589	7.659113
2511.000000	6.508466	0.315270	7.659113
2512.000000	6.509931	0.307062	7.659113
2513.000000	6.511323	0.301739	7.659113
2514.000000	6.512623	0.308739	7.659113
2515.000000	6.513823	0.306709	7.659113
2516.000000	6.514932	0.308326	7.659113
2517.000000	6.515968	0.305070	7.659113
2518.000000	6.516935	0.282757	7.659113
2519.000000	6.517827	0.299908	7.659113
2520.000000	6.518642	0.299934	7.659113
2521.000000	6.519389	0.291295	7.659113
2522.000000	6.520079	0.291462	7.659113
2523.000000	6.520722	0.305030	7.659113
2524.000000	6.521323	0.311942	7.659113
2525.000000	6.521879	0.289636	7.659113
2526.000000	6.522364	0.289573	7.659113
2527.000000	6.522748	0.263941	7.659113
2528.000000	6.523018	0.265694	7.659113
2529.000000	6.523180	0.277432	7.659113
2530.000000	6.523241	0.275655	7.659113
2531.000000	6.523200	0.272184	7.659113
2532.000000	6.523049	0.282482	7.659113
2533.000000	6.522797	0.289368	7.659113
2534.000000	6.522460	0.270329	7.659113
2535.000000	6.522053	0.261966	7.659113
2536.000000	6.521564	0.265183	7.659113
2537.000000	6.520979	0.265220	7.659113
2538.000000	6.520310	0.278970	7.659113
2539.000000	6.519565	0.251423	7.659113
2540.000000	6.518738	0.266646	7.659113
2541.000000	6.517820	0.268257	7.659113
2542.000000	6.516804	0.258179	7.659113
2543.000000	6.515684	0.248043	7.659113
2544.000000	6.514469	0.259561	7.659113
2545.000000	6.513190	0.242738	7.659113
2546.000000	6.511868	0.261406	7.659113
2547.000000	6.510514	0.252715	7.659113
2548.000000	6.509138	0.263114	7.659113
2549.000000	6.507734	0.233743	7.659113
2550.000000	6.506293	0.259622	7.659113
2551.000000	6.504817	0.230406	7.659113
2552.000000	6.503309	0.225192	7.659113
2553.000000	6.501769	0.232005	7.659113
2554.000000	6.500207	0.223428	7.659113
2555.000000	6.498632	0.221566	7.659113
2556.000000	6.497062	0.228432	7.659113
2557.000000	6.495517	0.226843	7.659113
2558.000000	6.494005	0.221692	7.659113
2559.000000	6.492530	0.232170	7.659113
2560.000000	6.491083	0.227161	7.659113
2561.000000	6.489654	0.232179	7.659113
2562.000000	6.488250	0.235375	7.659113
2563.000000	6.486879	0.225159	7.659113
2564.000000	6.485535	0.221765	7.659113
2565.000000	6.484205	0.221626	7.659113
2566.000000	6.482889	0.224862	7.659113
2567.000000	6.481608	0.233554	7.659113
2568.000000	6.480376	0.217960	7.659113
2569.000000	6.479213	0.236938	7.659113
2570.000000	6.478135	0.233646	7.659113
2571.000000	6.477140	0.250306	7.659113
2572.000000	6.476229	0.226637	7.659113
2573.000000	6.475389	0.206208	7.659113
2574.000000	6.474611	0.225166	7.659113
2575.000000	6.473900	0.221735	7.659113
2576.000000	6.473253	0.214782	7.659113
2577.000000	6.472658	0.219883	7.659113
2578.000000	6.472096	0.214797	7.659113
2579.000000	6.471555	0.204474	7.659113
2580.000000	6.471033	0.204377	7.659113
2581.000000	6.470541	0.226477	7.659113
2582.000000	6.470109	0.202432	7.659113
2583.000000	6.469756	0.217728	7.659113
2584.000000	6.469476	0.219759	7.659113
2585.000000	6.469251	0.224725	7.659113
2586.000000	6.469079	0.219698	7.659113
2587.000000	6.468960	0.216435	7.659113
2588.000000	6.468868	0.197514	7.659113
2589.000000	6.468776	0.206104	7.659113
2590.000000	6.468688	0.197509	7.659113
2591.000000	6.468598	0.209561	7.659113
2592.000000	6.468501	0.190595	7.659113
2593.000000	6.468390	0.190564	7.659113
2594.000000	6.468260	0.193845	7.659113
2595.000000	6.468135	0.199066	7.659113
2596.000000	6.468045	0.204053	7.659113
2597.000000	6.467995	0.190409	7.659113
2598.000000	6.467982	0.199124	7.659113
2599.000000	6.468005	0.187144	7.659113
2600.000000	6.468051	0.171685	7.659113
2601.000000	6.468102	0.178518	7.659113
2602.000000	6.468155	0.192363	7.659113
2603.000000	6.468199	0.183811	7.659113
2604.000000	6.468229	0.182209	7.659113
2605.000000	6.468244	0.180150	7.659113
2606.000000	6.468235	0.180363	7.659113
2607.000000	6.468205	0.180118	7.659113
2608.000000	6.468167	0.195455	7.659113
2609.000000	6.468129	0.180027	7.659113
2610.000000	6.468101	0.179954	7.659113
2611.000000	6.468089	0.197203	7.659113
2612.000000	6.468079	0.199287	7.659113
2613.000000	6.468063	0.200668	7.659113
2614.000000	6.468040	0.174902	7.659113
2615.000000	6.468007	0.185141	7.659113
2616.000000	6.467959	0.169842	7.659113
2617.000000	6.467878	0.176885	7.659113
2618.000000	6.467759	0.169698	7.659113
2619.000000	6.467609	0.172916	7.659113
2620.000000	6.467432	0.164358	7.659113
2621.000000	6.467221	0.169493	7.659113
2622.000000	6.466971	0.169397	7.659113
2623.000000	6.466697	0.181461	7.659113
2624.000000	6.466413	0.167822	7.659113
2625.000000	6.466118	0.173002	7.659113
2626.000000	6.465818	0.152370	7.659113
2627.000000	6.465508	0.174650	7.659113
2628.000000	6.465177	0.169631	7.659113
2629.000000	6.464819	0.159534	7.659113
2630.000000	6.464422	0.159274	7.659113
2631.000000	6.463987	0.167553	7.659113
2632.000000	6.463519	0.160920	7.659113
2633.000000	6.463025	0.167357	7.659113
2634.000000	6.462529	0.162354	7.659113
2635.000000	6.462039	0.155486	7.659113
2636.000000	6.461544	0.165838	7.659113
2637.000000	6.461052	0.158867	7.659113
2638.000000	6.460564	0.160685	7.659113
2639.000000	6.460070	0.167665	7.659113
2640.000000	6.459563	0.138580	7.659113
2641.000000	6.459042	0.145349	7.659113
2642.000000	6.458498	0.140169	7.659113
2643.000000	6.457912	0.152083	7.659113
2644.000000	6.457279	0.128062	7.659113
2645.000000	6.456611	0.138418	7.659113
2646.000000	6.455937	0.156942	7.659113
2647.000000	6.455284	0.153414	7.659113
2648.000000	6.454658	0.152048	7.659113
2649.000000	6.454053	0.153631	7.659113
2650.000000	6.453461	0.148504	7.659113
2651.000000	6.452882	0.136575	7.659113
2652.000000	6.452304	0.150069	7.659113
2653.000000	6.451723	0.151638	7.659113
2654.000000	6.451133	0.126391	7.659113
2655.000000	6.450518	0.150265	7.659113
2656.000000	6.449862	0.134656	7.659113
2657.000000	6.449173	0.129314	7.659113
2658.000000	6.448474	0.144762	7.659113
2659.000000	6.447787	0.149801	7.659113
2660.000000	6.447127	0.139475	7.659113
2661.000000	6.446494	0.143226	7.659113
2662.000000	6.445872	0.139592	7.659113
2663.000000	6.445250	0.141189	7.659113
2664.000000	6.444623	0.139757	7.659113
2665.000000	6.443982	0.153123	7.659113
2666.000000	6.443326	0.146318	7.659113
2667.000000	6.442645	0.136020	7.659113
2668.000000	6.441938	0.134156	7.659113
2669.000000	6.441227	0.139344	7.659113
2670.000000	6.440537	0.151431	7.659113
2671.000000	6.439873	0.144478	7.659113
2672.000000	6.439235	0.142742	7.659113
2673.000000	6.438615	0.144459	7.659113
2674.000000	6.437996	0.144486	7.659113
2675.000000	6.437369	0.134073	7.659113
2676.000000	6.436715	0.130636	7.659113
2677.000000	6.436030	0.128640	7.659113
2678.000000	6.435306	0.138885	7.659113
2679.000000	6.434543	0.137226	7.659113
2680.000000	6.433751	0.133887	7.659113
2681.000000	6.432939	0.150903	7.659113
2682.000000	6.432133	0.132002	7.659113
2683.000000	6.431358	0.140795	7.659113
2684.000000	6.430588	0.116562	7.659113
2685.000000	6.429787	0.145746	7.659113
2686.000000	6.428947	0.142218	7.659113
2687.000000	6.428072	0.120026	7.659113
2688.000000	6.427153	0.127092	7.659113
2689.000000	6.426180	0.124993	7.659113
2690.000000	6.425162	0.118026	7.659113
2691.000000	6.424104	0.116399	7.659113
2692.000000	6.423017	0.121095	7.659113
2693.000000	6.421924	0.129804	7.659113
2694.000000	6.420826	0.122849	7.659113
2695.000000	6.419713	0.131504	7.659113
2696.000000	6.418579	0.129765	7.659113
2697.000000	6.417429	0.118080	7.659113
2698.000000	6.416247	0.115950	7.659113
2699.000000	6.415001	0.121282	7.659113
2700.000000	6.413679	0.107296	7.659113
2701.000000	6.412292	0.119301	7.659113
2702.000000	6.410846	0.081310	7.659113
2703.000000	6.409343	0.098486	7.659113
2704.000000	6.407801	0.106891	7.659113
2705.000000	6.406238	0.125705	7.659113
2706.000000	6.404668	0.122323	7.659113
2707.000000	6.403099	0.108844	7.659113
2708.000000	6.401511	0.100052	7.659113
2709.000000	6.399881	0.106840	7.659113
2710.000000	6.398205	0.108717	7.659113
2711.000000	6.396487	0.101748	7.659113
2712.000000	6.394730	0.117089	7.659113
2713.000000	6.392926	0.099908	7.659113
2714.000000	6.391073	0.118455	7.659113
2715.000000	6.389192	0.096059	7.659113
2716.000000	6.387297	0.123621	7.659113
2717.000000	6.385389	0.087345	7.659113
2718.000000	6.383488	0.111514	7.659113
2719.000000	6.381613	0.101094	7.659113
2720.000000	6.379766	0.097772	7.659113
2721.000000	6.377936	0.102781	7.659113
2722.000000	6.376107	0.089145	7.659113
2723.000000	6.374283	0.090922	7.659113
2724.000000	6.372474	0.087207	7.659113
2725.000000	6.370688	0.090631	7.659113
2726.000000	6.368935	0.089190	7.659113
2727.000000	6.367220	0.102698	7.659113
2728.000000	6.365549	0.090534	7.659113
2729.000000	6.363928	0.100763	7.659113
2730.000000	6.362359	0.100970	7.659113
2731.000000	6.360860	0.104392	7.659113
2732.000000	6.359429	0.083967	7.659113
2733.000000	6.358052	0.089170	7.659113
2734.000000	6.356731	0.081902	7.659113
2735.000000	6.355467	0.073583	7.659113
2736.000000	6.354242	0.083609	7.659113
2737.000000	6.353052	0.080385	7.659113
2738.000000	6.351910	0.075018	7.659113
2739.000000	6.350835	0.099056	7.659113
2740.000000	6.349841	0.102353	7.659113
2741.000000	6.348932	0.083848	7.659113
2742.000000	6.348091	0.087254	7.659113
2743.000000	6.347302	0.076906	7.659113
2744.000000	6.346559	0.063198	7.659113
2745.000000	6.345854	0.068438	7.659113
2746.000000	6.345169	0.083742	7.659113
2747.000000	6.344511	0.074886	7.659113
2748.000000	6.343884	0.061368	7.659113
2749.000000	6.343298	0.086886	7.659113
2750.000000	6.342786	0.052759	7.659113
2751.000000	6.342345	0.083665	7.659113
2752.000000	6.341975	0.075137	7.659113
2753.000000	6.341692	0.104377	7.659113
2754.000000	6.341505	0.071747	7.659113
2755.000000	6.341402	0.070101	7.659113
2756.000000	6.341359	0.056511	7.659113
2757.000000	6.341348	0.070269	7.659113
2758.000000	6.341368	0.073599	7.659113
2759.000000	6.341423	0.052830	7.659113
2760.000000	6.341507	0.068421	7.659113
2761.000000	6.341624	0.064763	7.659113
2762.000000	6.341792	0.071655	7.659113
2763.000000	6.342038	0.095509	7.659113
2764.000000	6.342367	0.085496	7.659113
2765.000000	6.342754	0.073443	7.659113
2766.000000	6.343179	0.066810	7.659113
2767.000000	6.343623	0.061660	7.659113
2768.000000	6.344062	0.073563	7.659113
2769.000000	6.344497	0.066786	7.659113
2770.000000	6.344921	0.052842	7.659113
2771.000000	6.345319	0.056238	7.659113
2772.000000	6.345691	0.073603	7.659113
2773.000000	6.346059	0.073402	7.659113
2774.000000	6.346452	0.049486	7.659113
2775.000000	6.346874	0.047904	7.659113
2776.000000	6.347312	0.072046	7.659113
2777.000000	6.347763	0.078878	7.659113
2778.000000	6.348232	0.063636	7.659113
2779.000000	6.348721	0.063516	7.659113
2780.000000	6.349218	0.060245	7.659113
2781.000000	6.349699	0.073652	7.659113
2782.000000	6.350154	0.084025	7.659113
2783.000000	6.350587	0.029038	7.659113
2784.000000	6.351004	0.071676	7.659113
2785.000000	6.351425	0.061477	7.659113
2786.000000	6.351859	0.075570	7.659113
2787.000000	6.352305	0.085580	7.659113
2788.000000	6.352778	0.065037	7.659113
2789.000000	6.353274	0.059986	7.659113
2790.000000	6.353775	0.063462	7.659113
2791.000000	6.354269	0.068560	7.659113
2792.000000	6.354738	0.063431	7.659113
2793.000000	6.355169	0.063153	7.659113
2794.000000	6.355561	0.066826	7.659113
2795.000000	6.355923	0.082158	7.659113
2796.000000	6.356275	0.051256	7.659113
2797.000000	6.356624	0.068406	7.659113
2798.000000	6.356971	0.077150	7.659113
2799.000000	6.357330	0.086099	7.659113
2800.000000	6.357711	0.090865	7.659113
2801.000000	6.358118	0.054671	7.659113
2802.000000	6.358526	0.072242	7.659113
2803.000000	6.358901	0.065145	7.659113
2804.000000	6.359249	0.065078	7.659113
2805.000000	6.359594	0.070354	7.659113
2806.000000	6.359937	0.071840	7.659113
2807.000000	6.360280	0.056673	7.659113
2808.000000	6.360633	0.066838	7.659113
2809.000000	6.360995	0.068506	7.659113
2810.000000	6.361374	0.054956	7.659113
2811.000000	6.361775	0.071741	7.659113
2812.000000	6.362197	0.075420	7.659113
2813.000000	6.362639	0.061941	7.659113
2814.000000	6.363092	0.070618	7.659113
2815.000000	6.363535	0.065399	7.659113
2816.000000	6.363949	0.063565	7.659113
2817.000000	6.364336	0.051352	7.659113
2818.000000	6.364703	0.073788	7.659113
2819.000000	6.365057	0.066704	7.659113
2820.000000	6.365405	0.063400	7.659113
2821.000000	6.365754	0.063336	7.659113
2822.000000	6.366123	0.056520	7.659113
2823.000000	6.366527	0.082373	7.659113
2824.000000	6.366961	0.063618	7.659113
2825.000000	6.367420	0.072294	7.659113
2826.000000	6.367897	0.073884	7.659113
2827.000000	6.368378	0.075684	7.659113
2828.000000	6.368862	0.079345	7.659113
2829.000000	6.369346	0.065507	7.659113
2830.000000	6.369827	0.065347	7.659113
2831.000000	6.370315	0.065197	7.659113
2832.000000	6.370824	0.096081	7.659113
2833.000000	6.371367	0.075776	7.659113
2834.000000	6.371956	0.068662	7.659113
2835.000000	6.372593	0.082614	7.659113
2836.000000	6.373273	0.082641	7.659113
2837.000000	6.373983	0.074144	7.659113
2838.000000	6.374704	0.082651	7.659113
2839.000000	6.375421	0.063764	7.659113
2840.000000	6.376126	0.065583	7.659113
2841.000000	6.376818	0.058529	7.659113
2842.000000	6.377511	0.070659	7.659113
2843.000000	6.378218	0.070534	7.659113
2844.000000	6.378956	0.089391	7.659113
2845.000000	6.379742	0.081061	7.659113
2846.000000	6.380574	0.084408	7.659113
2847.000000	6.381443	0.076131	7.659113
2848.000000	6.382334	0.077707	7.659113
2849.000000	6.383226	0.076212	7.659113
2850.000000	6.384112	0.074225	7.659113
2851.000000	6.384993	0.055670	7.659113
2852.000000	6.385853	0.076047	7.659113
2853.000000	6.386662	0.069198	7.659113
2854.000000	6.387424	0.076217	7.659113
2855.000000	6.388164	0.086531	7.659113
2856.000000	6.388903	0.086120	7.659113
2857.000000	6.389654	0.074351	7.659113
2858.000000	6.390412	0.071058	7.659113
2859.000000	6.391162	0.074425	7.659113
2860.000000	6.391895	0.079673	7.659113
2861.000000	6.392606	0.074315	7.659113
2862.000000	6.393295	0.067649	7.659113
2863.000000	6.393964	0.067478	7.659113
2864.000000	6.394610	0.077862	7.659113
2865.000000	6.395235	0.084329	7.659113
2866.000000	6.395868	0.065847	7.659113
2867.000000	6.396526	0.088173	7.659113
2868.000000	6.397207	0.079619	7.659113
2869.000000	6.397903	0.069304	7.659113
2870.000000	6.398604	0.067639	7.659113
2871.000000	6.399301	0.064495	7.659113
2872.000000	6.399983	0.059245	7.659113
2873.000000	6.400638	0.064456	7.659113
2874.000000	6.401254	0.066086	7.659113
2875.000000	6.401822	0.072858	7.659113
2876.000000	6.402356	0.079447	7.659113
2877.000000	6.402883	0.060869	7.659113
2878.000000	6.403405	0.074377	7.659113
2879.000000	6.403928	0.071011	7.659113
2880.000000	6.404460	0.076235	7.659113
2881.000000	6.404992	0.074688	7.659113
2882.000000	6.405515	0.074532	7.659113
2883.000000	6.406015	0.079987	7.659113
2884.000000	6.406479	0.055769	7.659113
2885.000000	6.406900	0.069626	7.659113
2886.000000	6.407275	0.066312	7.659113
2887.000000	6.407599	0.066189	7.659113
2888.000000	6.407888	0.064365	7.659113
2889.000000	6.408161	0.069377	7.659113
2890.000000	6.408436	0.074759	7.659113
2891.000000	6.408732	0.066146	7.659113
2892.000000	6.409053	0.074770	7.659113
2893.000000	6.409403	0.059035	7.659113
2894.000000	6.409772	0.059503	7.659113
2895.000000	6.410123	0.048907	7.659113
2896.000000	6.410444	0.054396	7.659113
2897.000000	6.410731	0.062742	7.659113
2898.000000	6.410992	0.072769	7.659113
2899.000000	6.411257	0.040405	7.659113
2900.000000	6.411538	0.067655	7.659113
2901.000000	6.411829	0.061208	7.659113
2902.000000	6.412118	0.054157	7.659113
2903.000000	6.412390	0.051005	7.659113
2904.000000	6.412643	0.045620	7.659113
2905.000000	6.412884	0.056345	7.659113
2906.000000	6.413112	0.038573	7.659113
2907.000000	6.413318	0.047447	7.659113
2908.000000	6.413490	0.043924	7.659113
2909.000000	6.413628	0.041901	7.659113
2910.000000	6.413748	0.054131	7.659113
2911.000000	6.413871	0.059192	7.659113
2912.000000	6.414007	0.035221	7.659113
2913.000000	6.414141	0.025274	7.659113
2914.000000	6.414257	0.035840	7.659113
2915.000000	6.414360	0.031916	7.659113
2916.000000	6.414453	0.040470	7.659113
2917.000000	6.414529	0.047255	7.659113
2918.000000	6.414578	0.026878	7.659113
2919.000000	6.414595	0.026737	7.659113
2920.000000	6.414593	0.028282	7.659113
2921.000000	6.414585	0.016287	7.659113
2922.000000	6.414573	0.036631	7.659113
2923.000000	6.414562	0.030207	7.659113
2924.000000	6.414556	0.035180	7.659113
2925.000000	6.414557	0.019799	7.659113
2926.000000	6.414572	0.038670	7.659113
2927.000000	6.414592	0.018235	7.659113
2928.000000	6.414589	0.019725	7.659113
2929.000000	6.414552	0.033390	7.659113
2930.000000	6.414480	0.014605	7.659113
2931.000000	6.414379	0.009475	7.659113
2932.000000	6.414267	0.014554	7.659113
2933.000000	6.414161	0.014507	7.659113
2934.000000	6.414082	0.019743	7.659113
2935.000000	6.414055	0.002701	7.659113
2936.000000	6.414079	0.002789	7.659113
2937.000000	6.414145	0.032167	7.659113
2938.000000	6.414247	0.018289	7.659113
2939.000000	6.414371	0.016487	7.659113
2940.000000	6.414493	0.013314	7.659113
2941.000000	6.414614	0.018199	7.659113
2942.000000	6.414743	0.021654	7.659113
2943.000000	6.414875	0.006174	7.659113
2944.000000	6.415012	0.007683	7.659113
2945.000000	6.415179	0.016399	7.659113
2946.000000	6.415387	-0.002418	7.659113
2947.000000	6.415622	0.025073	7.659113
2948.000000	6.415885	0.010015	7.659113
2949.000000	6.416173	0.021773	7.659113
2950.000000	6.416485	0.014862	7.659113
2951.000000	6.416818	0.001121	7.659113
2952.000000	6.417152	0.001065	7.659113
2953.000000	6.417480	0.004398	7.659113
2954.000000	6.417801	-0.009126	7.659113
2955.000000	6.418125	0.016515	7.659113
2956.000000	6.418480	0.014818	7.659113
2957.000000	6.418885	0.027193	7.659113
2958.000000	6.419340	0.020174	7.659113
2959.000000	6.419839	0.013534	7.659113
2960.000000	6.420352	0.015108	7.659113
2961.000000	6.420848	0.004748	7.659113
2962.000000	6.421329	0.016666	7.659113
2963.000000	6.421817	0.014821	7.659113
2964.000000	6.422323	0.023713	7.659113
2965.000000	6.422851	0.013536	7.659113
2966.000000	6.423417	0.011383	7.659113
2967.000000	6.424039	0.009979	7.659113
2968.000000	6.424703	-0.006939	7.659113
2969.000000	6.425383	0.008318	7.659113
2970.000000	6.426073	0.006812	7.659113
2971.000000	6.426782	-0.000334	7.659113
2972.000000	6.427505	-0.012112	7.659113
2973.000000	6.428225	0.003258	7.659113
2974.000000	6.428928	-0.017719	7.659113
2975.000000	6.429606	-0.005589	7.659113
2976.000000	6.430268	0.004967	7.659113
2977.000000	6.430931	-0.005504	7.659113
2978.000000	6.431611	0.003256	7.659113
2979.000000	6.432327	0.008446	7.659113
2980.000000	6.433083	-0.010400	7.659113
2981.000000	6.433851	-0.005099	7.659113
2982.000000	6.434598	0.008665	7.659113
2983.000000	6.435335	-0.013857	7.659113
2984.000000	6.436085	-0.010458	7.659113
2985.000000	6.436826	-0.005352	7.659113
2986.000000	6.437536	-0.008925	7.659113
2987.000000	6.438222	-0.014103	7.659113
2988.000000	6.438905	0.011620	7.659113
2989.000000	6.439596	-0.010275	7.659113
2990.000000	6.440289	-0.005213	7.659113
2991.000000	6.440994	-0.005333	7.659113
2992.000000	6.441709	-0.006612	7.659113
