0.000000	0.018099	-0.028829	100.000000
1.000000	0.017612	-0.028747	100.000000
2.000000	0.017043	-0.020292	100.000000
3.000000	0.016407	-0.010074	100.000000
4.000000	0.015730	0.006986	100.000000
5.000000	0.015047	-0.017344	100.000000
6.000000	0.014379	0.007223	100.000000
7.000000	0.013712	-0.010081	100.000000
8.000000	0.013017	-0.015012	100.000000
9.000000	0.012284	-0.003366	100.000000
10.000000	0.011532	-0.018601	100.000000
11.000000	0.010784	0.013822	100.000000
12.000000	0.010056	-0.003207	100.000000
13.000000	0.009354	-0.016669	100.000000
14.000000	0.008665	-0.015096	100.000000
15.000000	0.007983	-0.023837	100.000000
16.000000	0.007319	-0.008246	100.000000
17.000000	0.006690	-0.008173	100.000000
18.000000	0.006115	-0.015136	100.000000
19.000000	0.005596	-0.004720	100.000000
20.000000	0.005100	-0.016828	100.000000
21.000000	0.004606	-0.013555	100.000000
22.000000	0.004133	-0.009904	100.000000
23.000000	0.003700	-0.011846	100.000000
24.000000	0.003322	-0.020313	100.000000
25.000000	0.002996	0.005674	100.000000
26.000000	0.002712	-0.013453	100.000000
27.000000	0.002461	-0.006461	100.000000
28.000000	0.002235	-0.010302	100.000000
29.000000	0.002048	-0.011830	100.000000
30.000000	0.001908	-0.015046	100.000000
31.000000	0.001815	-0.028852	100.000000
32.000000	0.001768	-0.004691	100.000000
33.000000	0.001750	-0.016606	100.000000
34.000000	0.001738	-0.020241	100.000000
35.000000	0.001737	-0.013752	100.000000
36.000000	0.001763	-0.016833	100.000000
37.000000	0.001818	-0.018632	100.000000
38.000000	0.001888	-0.006413	100.000000
39.000000	0.001961	-0.004632	100.000000
40.000000	0.002030	-0.006523	100.000000
41.000000	0.002075	-0.037228	100.000000
42.000000	0.002092	-0.013442	100.000000
43.000000	0.002112	-0.010039	100.000000
44.000000	0.002164	-0.002957	100.000000
45.000000	0.002245	-0.019911	100.000000
46.000000	0.002323	-0.006634	100.000000
47.000000	0.002379	-0.018481	100.000000
48.000000	0.002422	-0.016762	100.000000
49.000000	0.002464	-0.018621	100.000000
50.000000	0.002520	-0.015191	100.000000
51.000000	0.002597	-0.007872	100.000000
52.000000	0.002682	-0.027094	100.000000
53.000000	0.002754	-0.028765	100.000000
54.000000	0.002801	-0.018967	100.000000
55.000000	0.002828	-0.015251	100.000000
56.000000	0.002856	0.005359	100.000000
57.000000	0.002899	-0.025323	100.000000
58.000000	0.002947	-0.002955	100.000000
59.000000	0.002992	0.003801	100.000000
60.000000	0.003034	-0.030400	100.000000
61.000000	0.003063	-0.016803	100.000000
62.000000	0.003081	-0.032353	100.000000
63.000000	0.003108	-0.006431	100.000000
64.000000	0.003153	-0.008390	100.000000
65.000000	0.003209	-0.016771	100.000000
66.000000	0.003251	-0.015245	100.000000
67.000000	0.003251	-0.037465	100.000000
68.000000	0.003207	-0.030702	100.000000
69.000000	0.003162	-0.011827	100.000000
70.000000	0.003144	-0.004630	100.000000
71.000000	0.003144	-0.028630	100.000000
72.000000	0.003125	-0.020099	100.000000
73.000000	0.003076	-0.003405	100.000000
74.000000	0.003025	-0.018617	100.000000
75.000000	0.003002	-0.001423	100.000000
76.000000	0.003009	-0.023580	100.000000
77.000000	0.003020	-0.026975	100.000000
78.000000	0.003004	-0.020268	100.000000
79.000000	0.002964	-0.032248	100.000000
80.000000	0.002919	-0.013562	100.000000
81.000000	0.002898	-0.015197	100.000000
82.000000	0.002903	-0.001189	100.000000
83.000000	0.002906	-0.021836	100.000000
84.000000	0.002898	-0.030670	100.000000
85.000000	0.002881	-0.001442	100.000000
86.000000	0.002864	-0.023707	100.000000
87.000000	0.002862	-0.004781	100.000000
88.000000	0.002879	-0.015260	100.000000
89.000000	0.002899	-0.009721	100.000000
90.000000	0.002904	-0.025294	100.000000
91.000000	0.002893	-0.034105	100.000000
92.000000	0.002884	-0.023713	100.000000
93.000000	0.002892	0.007261	100.000000
94.000000	0.002920	-0.020304	100.000000
95.000000	0.002955	-0.015158	100.000000
96.000000	0.002997	-0.013369	100.000000
97.000000	0.003045	-0.016723	100.000000
98.000000	0.003087	-0.037291	100.000000
99.000000	0.003125	-0.018725	100.000000
100.000000	0.003155	-0.018477	100.000000
101.000000	0.003176	-0.008124	100.000000
102.000000	0.003202	-0.018375	100.000000
103.000000	0.003223	-0.023765	100.000000
104.000000	0.003229	-0.001530	100.000000
105.000000	0.003238	-0.030805	100.000000
106.000000	0.003282	-0.001730	100.000000
107.000000	0.003375	-0.013299	100.000000
108.000000	0.003499	-0.025196	100.000000
109.000000	0.003627	-0.008090	100.000000
110.000000	0.003727	-0.038964	100.000000
111.000000	0.003789	-0.023815	100.000000
112.000000	0.003841	-0.008140	100.000000
113.000000	0.003917	-0.010039	100.000000
114.000000	0.004010	-0.028471	100.000000
115.000000	0.004094	-0.013396	100.000000
116.000000	0.004152	-0.030477	100.000000
117.000000	0.004174	-0.033757	100.000000
118.000000	0.004168	-0.025659	100.000000
119.000000	0.004155	-0.023640	100.000000
120.000000	0.004150	-0.028757	100.000000
121.000000	0.004142	-0.030329	100.000000
122.000000	0.004107	-0.035838	100.000000
123.000000	0.004039	-0.015220	100.000000
124.000000	0.003968	-0.020308	100.000000
125.000000	0.003923	-0.013737	100.000000
126.000000	0.003910	-0.022083	100.000000
127.000000	0.003919	-0.021929	100.000000
128.000000	0.003929	-0.035462	100.000000
129.000000	0.003918	-0.027108	100.000000
130.000000	0.003875	-0.025536	100.000000
131.000000	0.003820	-0.015136	100.000000
132.000000	0.003801	-0.009807	100.000000
133.000000	0.003827	-0.014798	100.000000
134.000000	0.003863	-0.016808	100.000000
135.000000	0.003889	-0.016892	100.000000
136.000000	0.003897	-0.030503	100.000000
137.000000	0.003890	0.000333	100.000000
138.000000	0.003887	-0.020281	100.000000
139.000000	0.003892	-0.013278	100.000000
140.000000	0.003884	-0.030434	100.000000
141.000000	0.003838	-0.025370	100.000000
142.000000	0.003755	-0.020414	100.000000
143.000000	0.003660	-0.021990	100.000000
144.000000	0.003583	-0.028737	100.000000
145.000000	0.003526	-0.015005	100.000000
146.000000	0.003454	-0.015032	100.000000
147.000000	0.003355	-0.011781	100.000000
148.000000	0.003252	-0.035803	100.000000
149.000000	0.003170	-0.029123	100.000000
150.000000	0.003112	-0.023660	100.000000
151.000000	0.003064	-0.032208	100.000000
152.000000	0.003004	-0.025527	100.000000
153.000000	0.002917	-0.006512	100.000000
154.000000	0.002807	-0.024010	100.000000
155.000000	0.002704	-0.020218	100.000000
156.000000	0.002627	-0.030357	100.000000
157.000000	0.002560	-0.035509	100.000000
158.000000	0.002483	-0.025403	100.000000
159.000000	0.002380	-0.032393	100.000000
160.000000	0.002257	-0.021880	100.000000
161.000000	0.002147	-0.025225	100.000000
162.000000	0.002066	-0.023762	100.000000
163.000000	0.001997	-0.013114	100.000000
164.000000	0.001925	-0.013399	100.000000
165.000000	0.001860	-0.013659	100.000000
166.000000	0.001809	-0.013720	100.000000
167.000000	0.001776	-0.008143	100.000000
168.000000	0.001766	-0.031971	100.000000
169.000000	0.001772	-0.023646	100.000000
170.000000	0.001771	-0.018546	100.000000
171.000000	0.001759	-0.015194	100.000000
172.000000	0.001755	-0.016874	100.000000
173.000000	0.001764	-0.018425	100.000000
174.000000	0.001772	-0.030455	100.000000
175.000000	0.001772	-0.032329	100.000000
176.000000	0.001770	-0.022195	100.000000
177.000000	0.001780	-0.023716	100.000000
178.000000	0.001810	-0.002956	100.000000
179.000000	0.001866	-0.020255	100.000000
180.000000	0.001944	-0.023663	100.000000
181.000000	0.002028	-0.037637	100.000000
182.000000	0.002105	-0.020358	100.000000
183.000000	0.002176	-0.020219	100.000000
184.000000	0.002251	-0.025356	100.000000
185.000000	0.002350	-0.004649	100.000000
186.000000	0.002470	-0.038994	100.000000
187.000000	0.002584	-0.021865	100.000000
188.000000	0.002685	-0.025499	100.000000
189.000000	0.002783	-0.030316	100.000000
190.000000	0.002899	-0.020219	100.000000
191.000000	0.003023	-0.027020	100.000000
192.000000	0.003135	-0.028708	100.000000
193.000000	0.003233	-0.032356	100.000000
194.000000	0.003317	-0.020262	100.000000
195.000000	0.003401	-0.027431	100.000000
196.000000	0.003514	-0.018590	100.000000
197.000000	0.003656	-0.023488	100.000000
198.000000	0.003790	-0.020131	100.000000
199.000000	0.003890	-0.035783	100.000000
200.000000	0.003956	-0.032404	100.000000
201.000000	0.004006	-0.016880	100.000000
202.000000	0.004061	-0.028796	100.000000
203.000000	0.004126	-0.030435	100.000000
204.000000	0.004206	-0.020268	100.000000
205.000000	0.004296	-0.023669	100.000000
206.000000	0.004367	-0.028746	100.000000
207.000000	0.004412	-0.003291	100.000000
208.000000	0.004454	-0.025371	100.000000
209.000000	0.004515	-0.008244	100.000000
210.000000	0.004586	-0.021936	100.000000
211.000000	0.004649	-0.025365	100.000000
212.000000	0.004682	-0.050988	100.000000
213.000000	0.004678	-0.016793	100.000000
214.000000	0.004650	-0.022131	100.000000
215.000000	0.004627	-0.023620	100.000000
216.000000	0.004627	-0.020182	100.000000
217.000000	0.004627	-0.006400	100.000000
218.000000	0.004600	-0.013318	100.000000
219.000000	0.004571	-0.022128	100.000000
220.000000	0.004565	-0.016830	100.000000
221.000000	0.004579	-0.018563	100.000000
222.000000	0.004603	-0.030541	100.000000
223.000000	0.004619	-0.026958	100.000000
224.000000	0.004617	-0.028868	100.000000
225.000000	0.004609	-0.020210	100.000000
226.000000	0.004607	-0.027327	100.000000
227.000000	0.004613	-0.010144	100.000000
228.000000	0.004635	-0.018513	100.000000
229.000000	0.004672	-0.021806	100.000000
230.000000	0.004710	-0.014908	100.000000
231.000000	0.004742	-0.035760	100.000000
232.000000	0.004770	-0.008226	100.000000
233.000000	0.004818	-0.011953	100.000000
234.000000	0.004905	-0.027105	100.000000
235.000000	0.005009	-0.030443	100.000000
236.000000	0.005097	-0.009846	100.000000
237.000000	0.005159	-0.033708	100.000000
238.000000	0.005211	-0.022010	100.000000
239.000000	0.005281	-0.032235	100.000000
240.000000	0.005383	-0.013288	100.000000
241.000000	0.005502	-0.016647	100.000000
242.000000	0.005622	-0.025436	100.000000
243.000000	0.005729	-0.027096	100.000000
244.000000	0.005836	-0.020191	100.000000
245.000000	0.005976	-0.011673	100.000000
246.000000	0.006168	-0.034071	100.000000
247.000000	0.006419	-0.032110	100.000000
248.000000	0.006689	-0.018256	100.000000
249.000000	0.006927	-0.035563	100.000000
250.000000	0.007141	-0.002941	100.000000
251.000000	0.007367	-0.032056	100.000000
252.000000	0.007622	-0.016573	100.000000
253.000000	0.007905	-0.018225	100.000000
254.000000	0.008200	-0.028605	100.000000
255.000000	0.008483	-0.028432	100.000000
256.000000	0.008757	-0.020108	100.000000
257.000000	0.009044	-0.026928	100.000000
258.000000	0.009365	-0.020011	100.000000
259.000000	0.009728	-0.028392	100.000000
260.000000	0.010117	-0.026723	100.000000
261.000000	0.010510	-0.019924	100.000000
262.000000	0.010897	-0.025157	100.000000
263.000000	0.011288	0.010728	100.000000
264.000000	0.011696	-0.024916	100.000000
265.000000	0.012121	-0.019978	100.000000
266.000000	0.012552	-0.026681	100.000000
267.000000	0.012971	-0.035281	100.000000
268.000000	0.013367	-0.024919	100.000000
269.000000	0.013752	-0.004744	100.000000
270.000000	0.014146	-0.018244	100.000000
271.000000	0.014572	-0.016329	100.000000
272.000000	0.015026	-0.016503	100.000000
273.000000	0.015462	-0.005986	100.000000
274.000000	0.015861	-0.002907	100.000000
275.000000	0.016254	-0.020058	100.000000
276.000000	0.016659	-0.030520	100.000000
277.000000	0.017074	-0.007785	100.000000
278.000000	0.017494	-0.012791	100.000000
279.000000	0.017919	-0.017882	100.000000
280.000000	0.018333	-0.016363	100.000000
281.000000	0.018724	-0.014945	100.000000
282.000000	0.019105	-0.009321	100.000000
283.000000	0.019499	-0.014652	100.000000
284.000000	0.019910	-0.017968	100.000000
285.000000	0.020330	-0.024950	100.000000
286.000000	0.020749	-0.026506	100.000000
287.000000	0.021155	-0.049118	100.000000
288.000000	0.021538	-0.021831	100.000000
289.000000	0.021914	-0.014580	100.000000
290.000000	0.022300	-0.024718	100.000000
291.000000	0.022683	-0.045208	100.000000
292.000000	0.023043	-0.004249	100.000000
293.000000	0.023387	-0.042181	100.000000
294.000000	0.023743	-0.019794	100.000000
295.000000	0.024120	-0.002694	100.000000
296.000000	0.024500	-0.011092	100.000000
297.000000	0.024877	-0.034972	100.000000
298.000000	0.025242	0.000899	100.000000
299.000000	0.025575	-0.011127	100.000000
300.000000	0.025899	-0.004429	100.000000
301.000000	0.026245	-0.016151	100.000000
302.000000	0.026586	-0.007634	100.000000
303.000000	0.026892	-0.023055	100.000000
304.000000	0.027177	-0.016097	100.000000
305.000000	0.027435	-0.029889	100.000000
306.000000	0.027651	-0.012780	100.000000
307.000000	0.027857	-0.000851	100.000000
308.000000	0.028068	-0.014503	100.000000
309.000000	0.028273	-0.007544	100.000000
310.000000	0.028463	-0.034879	100.000000
311.000000	0.028640	-0.016136	100.000000
312.000000	0.028829	-0.004200	100.000000
313.000000	0.029039	-0.010901	100.000000
314.000000	0.029262	-0.007535	100.000000
315.000000	0.029493	-0.033243	100.000000
316.000000	0.029724	-0.012627	100.000000
317.000000	0.029951	-0.036983	100.000000
318.000000	0.030186	-0.011124	100.000000
319.000000	0.030436	-0.009209	100.000000
320.000000	0.030709	-0.021176	100.000000
321.000000	0.031006	-0.016005	100.000000
322.000000	0.031306	-0.022941	100.000000
323.000000	0.031585	-0.031423	100.000000
324.000000	0.031849	-0.025043	100.000000
325.000000	0.032124	-0.019718	100.000000
326.000000	0.032412	-0.012554	100.000000
327.000000	0.032699	-0.017607	100.000000
328.000000	0.032977	-0.015985	100.000000
329.000000	0.033227	-0.029658	100.000000
330.000000	0.033434	-0.024704	100.000000
331.000000	0.033622	-0.036846	100.000000
332.000000	0.033816	-0.014394	100.000000
333.000000	0.034021	-0.019308	100.000000
334.000000	0.034235	-0.012695	100.000000
335.000000	0.034442	-0.038331	100.000000
336.000000	0.034622	-0.017943	100.000000
337.000000	0.034779	-0.005943	100.000000
338.000000	0.034936	-0.033178	100.000000
339.000000	0.035100	-0.012623	100.000000
340.000000	0.035274	-0.016238	100.000000
341.000000	0.035447	-0.028035	100.000000
342.000000	0.035598	-0.014364	100.000000
343.000000	0.035729	-0.024951	100.000000
344.000000	0.035850	-0.009323	100.000000
345.000000	0.035979	-0.005884	100.000000
346.000000	0.036106	-0.029658	100.000000
347.000000	0.036207	-0.024699	100.000000
348.000000	0.036276	-0.019457	100.000000
349.000000	0.036326	-0.019831	100.000000
350.000000	0.036374	-0.010893	100.000000
351.000000	0.036432	-0.021391	100.000000
352.000000	0.036501	-0.014094	100.000000
353.000000	0.036559	-0.019096	100.000000
354.000000	0.036586	-0.038380	100.000000
355.000000	0.036579	-0.016167	100.000000
356.000000	0.036562	-0.021130	100.000000
357.000000	0.036577	-0.017670	100.000000
358.000000	0.036614	-0.009003	100.000000
359.000000	0.036639	-0.031529	100.000000
360.000000	0.036640	-0.014171	100.000000
361.000000	0.036622	-0.019655	100.000000
362.000000	0.036603	-0.024782	100.000000
363.000000	0.036603	-0.012722	100.000000
364.000000	0.036628	-0.019102	100.000000
365.000000	0.036661	-0.026247	100.000000
366.000000	0.036681	-0.027998	100.000000
367.000000	0.036685	-0.011035	100.000000
368.000000	0.036689	-0.016039	100.000000
369.000000	0.036706	-0.014066	100.000000
370.000000	0.036731	-0.041710	100.000000
371.000000	0.036746	-0.028157	100.000000
372.000000	0.036735	-0.021403	100.000000
373.000000	0.036704	-0.033367	100.000000
374.000000	0.036676	-0.041814	100.000000
375.000000	0.036657	-0.023006	100.000000
376.000000	0.036634	-0.031519	100.000000
377.000000	0.036594	-0.031591	100.000000
378.000000	0.036535	-0.029909	100.000000
379.000000	0.036474	-0.026452	100.000000
380.000000	0.036422	-0.028155	100.000000
381.000000	0.036381	-0.027775	100.000000
382.000000	0.036343	-0.021141	100.000000
383.000000	0.036301	-0.040168	100.000000
384.000000	0.036247	-0.040174	100.000000
385.000000	0.036206	-0.036696	100.000000
386.000000	0.036192	-0.019354	100.000000
387.000000	0.036184	-0.026289	100.000000
388.000000	0.036157	-0.034739	100.000000
389.000000	0.036103	-0.030010	100.000000
390.000000	0.036027	-0.041712	100.000000
391.000000	0.035936	-0.021342	100.000000
392.000000	0.035852	-0.031374	100.000000
393.000000	0.035793	-0.043246	100.000000
394.000000	0.035752	-0.033086	100.000000
395.000000	0.035707	-0.050220	100.000000
396.000000	0.035661	-0.029897	100.000000
397.000000	0.035635	-0.048524	100.000000
398.000000	0.035652	-0.033112	100.000000
399.000000	0.035712	-0.020990	100.000000
400.000000	0.035794	-0.046679	100.000000
401.000000	0.035884	-0.036562	100.000000
402.000000	0.035982	-0.043334	100.000000
403.000000	0.036099	-0.024133	100.000000
404.000000	0.036249	-0.036274	100.000000
405.000000	0.036436	-0.034537	100.000000
406.000000	0.036646	-0.050039	100.000000
407.000000	0.036870	-0.038112	100.000000
408.000000	0.037120	-0.031348	100.000000
409.000000	0.037422	-0.038202	100.000000
410.000000	0.037804	-0.029107	100.000000
411.000000	0.038254	-0.044634	100.000000
412.000000	0.038740	-0.049993	100.000000
413.000000	0.039260	-0.046411	100.000000
414.000000	0.039834	-0.037699	100.000000
415.000000	0.040473	-0.019132	100.000000
416.000000	0.041172	-0.032640	100.000000
417.000000	0.041919	-0.046396	100.000000
418.000000	0.042706	-0.042942	100.000000
419.000000	0.043541	-0.025758	100.000000
420.000000	0.044445	-0.023601	100.000000
421.000000	0.045426	-0.027013	100.000000
422.000000	0.046470	-0.042372	100.000000
423.000000	0.047555	-0.040799	100.000000
424.000000	0.048673	-0.040770	100.000000
425.000000	0.049824	-0.047934	100.000000
426.000000	0.051021	-0.047523	100.000000
427.000000	0.052274	-0.033705	100.000000
428.000000	0.053566	-0.056100	100.000000
429.000000	0.054878	-0.052697	100.000000
430.000000	0.056212	-0.042453	100.000000
431.000000	0.057584	-0.051099	100.000000
432.000000	0.059002	-0.047329	100.000000
433.000000	0.060461	-0.042074	100.000000
434.000000	0.061961	-0.061163	100.000000
435.000000	0.063490	-0.052449	100.000000
436.000000	0.065048	-0.036872	100.000000
437.000000	0.066654	-0.041660	100.000000
438.000000	0.068301	-0.038546	100.000000
439.000000	0.069984	-0.048729	100.000000
440.000000	0.071701	-0.050358	100.000000
441.000000	0.073421	-0.045262	100.000000
442.000000	0.075143	-0.055548	100.000000
443.000000	0.076900	-0.033089	100.000000
444.000000	0.078713	-0.036377	100.000000
445.000000	0.080565	-0.039644	100.000000
446.000000	0.082439	-0.063614	100.000000
447.000000	0.084328	-0.063855	100.000000
448.000000	0.086229	-0.053277	100.000000
449.000000	0.088161	-0.048230	100.000000
450.000000	0.090142	-0.049922	100.000000
451.000000	0.092182	-0.036109	100.000000
452.000000	0.094272	-0.041024	100.000000
453.000000	0.096383	-0.054694	100.000000
454.000000	0.098502	-0.054608	100.000000
455.000000	0.100652	-0.054576	100.000000
456.000000	0.102857	-0.049339	100.000000
457.000000	0.105124	-0.049138	100.000000
458.000000	0.107446	-0.042110	100.000000
459.000000	0.109819	-0.059291	100.000000
460.000000	0.112242	-0.050887	100.000000
461.000000	0.114728	-0.052547	100.000000
462.000000	0.117283	-0.040210	100.000000
463.000000	0.119907	-0.052012	100.000000
464.000000	0.122598	-0.064248	100.000000
465.000000	0.125343	-0.045146	100.000000
466.000000	0.128147	-0.033285	100.000000
467.000000	0.131042	-0.050170	100.000000
468.000000	0.134038	-0.037845	100.000000
469.000000	0.137128	-0.037781	100.000000
470.000000	0.140301	-0.049712	100.000000
471.000000	0.143536	-0.039655	100.000000
472.000000	0.146839	-0.037430	100.000000
473.000000	0.150220	-0.034051	100.000000
474.000000	0.153671	-0.044750	100.000000
475.000000	0.157198	-0.045950	100.000000
476.000000	0.160801	-0.032037	100.000000
477.000000	0.164460	-0.033726	100.000000
478.000000	0.168168	-0.037064	100.000000
479.000000	0.171937	-0.043821	100.000000
480.000000	0.175778	-0.029829	100.000000
481.000000	0.179682	-0.045097	100.000000
482.000000	0.183626	-0.052231	100.000000
483.000000	0.187599	-0.053909	100.000000
484.000000	0.191607	-0.038085	100.000000
485.000000	0.195663	-0.038099	100.000000
486.000000	0.199780	-0.031034	100.000000
487.000000	0.203961	-0.032574	100.000000
488.000000	0.208189	-0.051393	100.000000
489.000000	0.212445	-0.054459	100.000000
490.000000	0.216736	-0.034311	100.000000
491.000000	0.221088	-0.026844	100.000000
492.000000	0.225530	-0.050664	100.000000
493.000000	0.230075	-0.047047	100.000000
494.000000	0.234695	-0.036688	100.000000
495.000000	0.239369	-0.029699	100.000000
496.000000	0.244119	-0.019340	100.000000
497.000000	0.248979	-0.031012	100.000000
498.000000	0.253974	-0.027548	100.000000
499.000000	0.259126	-0.035719	100.000000
500.000000	0.264440	-0.016767	100.000000
501.000000	0.269904	-0.018133	100.000000
502.000000	0.275522	-0.016770	100.000000
503.000000	0.281321	-0.007707	100.000000
504.000000	0.287314	-0.004334	100.000000
505.000000	0.293494	-0.008876	100.000000
506.000000	0.299852	-0.011940	100.000000
507.000000	0.306385	-0.001767	100.000000
508.000000	0.313115	-0.020464	100.000000
509.000000	0.320060	0.005572	100.000000
510.000000	0.327217	0.012579	100.000000
511.000000	0.334590	0.011292	100.000000
512.000000	0.342163	0.020183	100.000000
513.000000	0.349903	0.021911	100.000000
514.000000	0.357792	0.034146	100.000000
515.000000	0.365832	0.037690	100.000000
516.000000	0.374033	0.031250	100.000000
517.000000	0.382388	0.028046	100.000000
518.000000	0.390883	0.038627	100.000000
519.000000	0.399496	0.035357	100.000000
520.000000	0.408203	0.042319	100.000000
521.000000	0.417007	0.056054	100.000000
522.000000	0.425918	0.063405	100.000000
523.000000	0.434942	0.063625	100.000000
524.000000	0.444064	0.053635	100.000000
525.000000	0.453258	0.064013	100.000000
526.000000	0.462507	0.060968	100.000000
527.000000	0.471829	0.064481	100.000000
528.000000	0.481255	0.063273	100.000000
529.000000	0.490797	0.085917	100.000000
530.000000	0.500461	0.072520	100.000000
531.000000	0.510245	0.070995	100.000000
532.000000	0.520112	0.066397	100.000000
533.000000	0.530048	0.104240	100.000000
534.000000	0.540087	0.106341	100.000000
535.000000	0.550243	0.110297	100.000000
536.000000	0.560469	0.098651	100.000000
537.000000	0.570705	0.090367	100.000000
538.000000	0.580913	0.083628	100.000000
539.000000	0.591070	0.104469	100.000000
540.000000	0.601170	0.118740	100.000000
541.000000	0.611216	0.121049	100.000000
542.000000	0.621209	0.107738	100.000000
543.000000	0.631145	0.123530	100.000000
544.000000	0.641012	0.111953	100.000000
545.000000	0.650799	0.120185	100.000000
546.000000	0.660522	0.128875	100.000000
547.000000	0.670188	0.141154	100.000000
548.000000	0.679764	0.134577	100.000000
549.000000	0.689215	0.124285	100.000000
550.000000	0.698506	0.141999	100.000000
551.000000	0.707617	0.121558	100.000000
552.000000	0.716558	0.124920	100.000000
553.000000	0.725359	0.145981	100.000000
554.000000	0.734047	0.146313	100.000000
555.000000	0.742628	0.148136	100.000000
556.000000	0.751108	0.143361	100.000000
557.000000	0.759482	0.146677	100.000000
558.000000	0.767765	0.152008	100.000000
559.000000	0.775979	0.150893	100.000000
560.000000	0.784125	0.139075	100.000000
561.000000	0.792198	0.144472	100.000000
562.000000	0.800182	0.139683	100.000000
563.000000	0.808073	0.139725	100.000000
564.000000	0.815895	0.152078	100.000000
565.000000	0.823678	0.147323	100.000000
566.000000	0.831438	0.140850	100.000000
567.000000	0.839178	0.129156	100.000000
568.000000	0.846887	0.149849	100.000000
569.000000	0.854554	0.160184	100.000000
570.000000	0.862172	0.136681	100.000000
571.000000	0.869737	0.159078	100.000000
572.000000	0.877253	0.152510	100.000000
573.000000	0.884738	0.173345	100.000000
574.000000	0.892194	0.134508	100.000000
575.000000	0.899602	0.138093	100.000000
576.000000	0.906962	0.155350	100.000000
577.000000	0.914287	0.145934	100.000000
578.000000	0.921607	0.141320	100.000000
579.000000	0.928946	0.155144	100.000000
580.000000	0.936281	0.152251	100.000000
581.000000	0.943572	0.150742	100.000000
582.000000	0.950806	0.133891	100.000000
583.000000	0.957987	0.164878	100.000000
584.000000	0.965120	0.151515	100.000000
585.000000	0.972184	0.136359	100.000000
586.000000	0.979149	0.124697	100.000000
587.000000	0.985997	0.133338	100.000000
588.000000	0.992738	0.160693	100.000000
589.000000	0.999411	0.155984	100.000000
590.000000	1.006048	0.146167	100.000000
591.000000	1.012651	0.137942	100.000000
592.000000	1.019213	0.148712	100.000000
593.000000	1.025740	0.141609	100.000000
594.000000	1.032258	0.146914	100.000000
595.000000	1.038800	0.157479	100.000000
596.000000	1.045394	0.171554	100.000000
597.000000	1.052048	0.159669	100.000000
598.000000	1.058761	0.144505	100.000000
599.000000	1.065526	0.165387	100.000000
600.000000	1.072352	0.150109	100.000000
601.000000	1.079268	0.147040	100.000000
602.000000	1.086294	0.159247	100.000000
603.000000	1.093426	0.145885	100.000000
604.000000	1.100651	0.133933	100.000000
605.000000	1.107962	0.151414	100.000000
606.000000	1.115379	0.158670	100.000000
607.000000	1.122912	0.167844	100.000000
608.000000	1.130539	0.157651	100.000000
609.000000	1.138231	0.150945	100.000000
610.000000	1.145965	0.130229	100.000000
611.000000	1.153728	0.140777	100.000000
612.000000	1.161531	0.156510	100.000000
613.000000	1.169398	0.136245	100.000000
614.000000	1.177353	0.151926	100.000000
615.000000	1.185383	0.155692	100.000000
616.000000	1.193466	0.145348	100.000000
617.000000	1.201577	0.126795	100.000000
618.000000	1.209704	0.121888	100.000000
619.000000	1.217865	0.130832	100.000000
620.000000	1.226068	0.136146	100.000000
621.000000	1.234316	0.131436	100.000000
622.000000	1.242606	0.119531	100.000000
623.000000	1.250918	0.143649	100.000000
624.000000	1.259260	0.133520	100.000000
625.000000	1.267674	0.144085	100.000000
626.000000	1.276179	0.127519	100.000000
627.000000	1.284748	0.115858	100.000000
628.000000	1.293347	0.126279	100.000000
629.000000	1.301973	0.120969	100.000000
630.000000	1.310638	0.121305	100.000000
631.000000	1.319358	0.138553	100.000000
632.000000	1.328130	0.120048	100.000000
633.000000	1.336930	0.142664	100.000000
634.000000	1.345727	0.117018	100.000000
635.000000	1.354497	0.117173	100.000000
636.000000	1.363232	0.126059	100.000000
637.000000	1.371956	0.133224	100.000000
638.000000	1.380685	0.136869	100.000000
639.000000	1.389421	0.133594	100.000000
640.000000	1.398169	0.133842	100.000000
641.000000	1.406900	0.116921	100.000000
642.000000	1.415579	0.129036	100.000000
643.000000	1.424208	0.129112	100.000000
644.000000	1.432802	0.127846	100.000000
645.000000	1.441378	0.125875	100.000000
646.000000	1.449902	0.123026	100.000000
647.000000	1.458317	0.141966	100.000000
648.000000	1.466625	0.124358	100.000000
649.000000	1.474856	0.138753	100.000000
650.000000	1.483021	0.142442	100.000000
651.000000	1.491125	0.125333	100.000000
652.000000	1.499168	0.129086	100.000000
653.000000	1.507127	0.136357	100.000000
654.000000	1.514982	0.131177	100.000000
655.000000	1.522743	0.141240	100.000000
656.000000	1.530437	0.125767	100.000000
657.000000	1.538088	0.138429	100.000000
658.000000	1.545688	0.122982	100.000000
659.000000	1.553220	0.138755	100.000000
660.000000	1.560673	0.140243	100.000000
661.000000	1.568049	0.147166	100.000000
662.000000	1.575360	0.136864	100.000000
663.000000	1.582623	0.130200	100.000000
664.000000	1.589861	0.145913	100.000000
665.000000	1.597068	0.128830	100.000000
666.000000	1.604227	0.139077	100.000000
667.000000	1.611332	0.125584	100.000000
668.000000	1.618402	0.151250	100.000000
669.000000	1.625455	0.151472	100.000000
670.000000	1.632489	0.136330	100.000000
671.000000	1.639498	0.148370	100.000000
672.000000	1.646470	0.127885	100.000000
673.000000	1.653388	0.122598	100.000000
674.000000	1.660260	0.136309	100.000000
675.000000	1.667106	0.136426	100.000000
676.000000	1.673926	0.133256	100.000000
677.000000	1.680694	0.122988	100.000000
678.000000	1.687389	0.130090	100.000000
679.000000	1.694018	0.136465	100.000000
680.000000	1.700618	0.123053	100.000000
681.000000	1.707208	0.136837	100.000000
682.000000	1.713763	0.130493	100.000000
683.000000	1.720273	0.142162	100.000000
684.000000	1.726737	0.121558	100.000000
685.000000	1.733149	0.125500	100.000000
686.000000	1.739533	0.137595	100.000000
687.000000	1.745934	0.129025	100.000000
688.000000	1.752389	0.133000	100.000000
689.000000	1.758901	0.117412	100.000000
690.000000	1.765439	0.115901	100.000000
691.000000	1.771973	0.091632	100.000000
692.000000	1.778499	0.116079	100.000000
693.000000	1.785026	0.114394	100.000000
694.000000	1.791560	0.102650	100.000000
695.000000	1.798109	0.085364	100.000000
696.000000	1.804673	0.084057	100.000000
697.000000	1.811236	0.080344	100.000000
698.000000	1.817796	0.080309	100.000000
699.000000	1.824382	0.072073	100.000000
700.000000	1.831006	0.072546	100.000000
701.000000	1.837658	0.059001	100.000000
702.000000	1.844324	0.072687	100.000000
703.000000	1.850992	0.051941	100.000000
704.000000	1.857643	0.057319	100.000000
705.000000	1.864273	0.083147	100.000000
706.000000	1.870916	0.054319	100.000000
707.000000	1.877584	0.063526	100.000000
708.000000	1.884261	0.068407	100.000000
709.000000	1.890934	0.058547	100.000000
710.000000	1.897620	0.053440	100.000000
711.000000	1.904351	0.053785	100.000000
712.000000	1.911143	0.052202	100.000000
713.000000	1.917987	0.066314	100.000000
714.000000	1.924882	0.045746	100.000000
715.000000	1.931815	0.052785	100.000000
716.000000	1.938753	0.034225	100.000000
717.000000	1.945685	0.035789	100.000000
718.000000	1.952638	0.058320	100.000000
719.000000	1.959639	0.051760	100.000000
720.000000	1.966677	0.048715	100.000000
721.000000	1.973730	0.021229	100.000000
722.000000	1.980801	0.044887	100.000000
723.000000	1.987902	0.026526	100.000000
724.000000	1.995032	0.052720	100.000000
725.000000	2.002188	0.037384	100.000000
726.000000	2.009367	0.018740	100.000000
727.000000	2.016552	0.027471	100.000000
728.000000	2.023721	0.035862	100.000000
729.000000	2.030880	0.031061	100.000000
730.000000	2.038046	0.012650	100.000000
731.000000	2.045234	0.017798	100.000000
732.000000	2.052449	0.014653	100.000000
733.000000	2.059682	0.011289	100.000000
734.000000	2.066940	0.014965	100.000000
735.000000	2.074247	0.001411	100.000000
736.000000	2.081613	0.003392	100.000000
737.000000	2.089026	-0.001525	100.000000
738.000000	2.096472	0.012420	100.000000
739.000000	2.103939	0.007247	100.000000
740.000000	2.111416	0.011114	100.000000
741.000000	2.118903	0.012874	100.000000
742.000000	2.126413	0.019995	100.000000
743.000000	2.133962	0.013313	100.000000
744.000000	2.141526	-0.001525	100.000000
745.000000	2.149072	4.631708E-5	100.000000
746.000000	2.156594	-0.029154	100.000000
747.000000	2.164120	0.001912	100.000000
748.000000	2.171678	-0.011300	100.000000
749.000000	2.179268	-0.007795	100.000000
750.000000	2.186881	-0.016047	100.000000
751.000000	2.194521	0.006280	100.000000
752.000000	2.202195	-0.007134	100.000000
753.000000	2.209916	-0.010325	100.000000
754.000000	2.217703	-0.017125	100.000000
755.000000	2.225578	-0.004716	100.000000
756.000000	2.233549	-0.017926	100.000000
757.000000	2.241597	-0.026366	100.000000
758.000000	2.249704	-0.012646	100.000000
759.000000	2.257883	-0.026119	100.000000
760.000000	2.266163	-0.015592	100.000000
761.000000	2.274559	-0.013560	100.000000
762.000000	2.283071	-0.013168	100.000000
763.000000	2.291669	-0.038666	100.000000
764.000000	2.300327	-0.038683	100.000000
765.000000	2.309045	-0.036700	100.000000
766.000000	2.317847	-0.026048	100.000000
767.000000	2.326743	-0.023908	100.000000
768.000000	2.335724	-0.044166	100.000000
769.000000	2.344781	-0.044054	100.000000
770.000000	2.353911	-0.045573	100.000000
771.000000	2.363106	-0.048466	100.000000
772.000000	2.372373	-0.050258	100.000000
773.000000	2.381725	-0.037865	100.000000
774.000000	2.391155	-0.051241	100.000000
775.000000	2.400642	-0.069748	100.000000
776.000000	2.410166	-0.052541	100.000000
777.000000	2.419739	-0.048895	100.000000
778.000000	2.429382	-0.055262	100.000000
779.000000	2.439110	-0.056774	100.000000
780.000000	2.448940	-0.059717	100.000000
781.000000	2.458867	-0.071463	100.000000
782.000000	2.468871	-0.064361	100.000000
783.000000	2.478949	-0.072664	100.000000
784.000000	2.489112	-0.065581	100.000000
785.000000	2.499372	-0.066894	100.000000
786.000000	2.509741	-0.071633	100.000000
787.000000	2.520214	-0.079954	100.000000
788.000000	2.530774	-0.061182	100.000000
789.000000	2.541410	-0.075993	100.000000
790.000000	2.552118	-0.080875	100.000000
791.000000	2.562901	-0.061895	100.000000
792.000000	2.573769	-0.059716	100.000000
793.000000	2.584745	-0.079983	100.000000
794.000000	2.595831	-0.077884	100.000000
795.000000	2.606989	-0.089728	100.000000
796.000000	2.618195	-0.087828	100.000000
797.000000	2.629452	-0.085703	100.000000
798.000000	2.640772	-0.073459	100.000000
799.000000	2.652144	-0.078105	100.000000
800.000000	2.663556	-0.072606	100.000000
801.000000	2.674998	-0.087878	100.000000
802.000000	2.686460	-0.089499	100.000000
803.000000	2.697955	-0.091164	100.000000
804.000000	2.709501	-0.097438	100.000000
805.000000	2.721101	-0.076405	100.000000
806.000000	2.732760	-0.084807	100.000000
807.000000	2.744471	-0.084520	100.000000
808.000000	2.756225	-0.091097	100.000000
809.000000	2.768009	-0.109780	100.000000
810.000000	2.779822	-0.087469	100.000000
811.000000	2.791682	-0.090183	100.000000
812.000000	2.803606	-0.081501	100.000000
813.000000	2.815588	-0.091152	100.000000
814.000000	2.827596	-0.096417	100.000000
815.000000	2.839619	-0.101300	100.000000
816.000000	2.851677	-0.076672	100.000000
817.000000	2.863802	-0.078279	100.000000
818.000000	2.875990	-0.101899	100.000000
819.000000	2.888211	-0.110062	100.000000
820.000000	2.900446	-0.104930	100.000000
821.000000	2.912693	-0.097783	100.000000
822.000000	2.924951	-0.080086	100.000000
823.000000	2.937218	-0.097105	100.000000
824.000000	2.949501	-0.098356	100.000000
825.000000	2.961793	-0.096434	100.000000
826.000000	2.974075	-0.096403	100.000000
827.000000	2.986326	-0.090917	100.000000
828.000000	2.998537	-0.095717	100.000000
829.000000	3.010725	-0.100652	100.000000
830.000000	3.022886	-0.101965	100.000000
831.000000	3.034997	-0.105202	100.000000
832.000000	3.047034	-0.098179	100.000000
833.000000	3.058988	-0.109881	100.000000
834.000000	3.070871	-0.103026	100.000000
835.000000	3.082718	-0.099350	100.000000
836.000000	3.094579	-0.102525	100.000000
837.000000	3.106469	-0.107416	100.000000
838.000000	3.118365	-0.118809	100.000000
839.000000	3.130230	-0.106695	100.000000
840.000000	3.142032	-0.132463	100.000000
841.000000	3.153772	-0.114957	100.000000
842.000000	3.165477	-0.107983	100.000000
843.000000	3.177174	-0.116139	100.000000
844.000000	3.188867	-0.112368	100.000000
845.000000	3.200540	-0.139348	100.000000
846.000000	3.212179	-0.134126	100.000000
847.000000	3.223788	-0.128728	100.000000
848.000000	3.235388	-0.119963	100.000000
849.000000	3.247014	-0.104107	100.000000
850.000000	3.258686	-0.113750	100.000000
851.000000	3.270395	-0.124022	100.000000
852.000000	3.282125	-0.139193	100.000000
853.000000	3.293859	-0.129057	100.000000
854.000000	3.305606	-0.143920	100.000000
855.000000	3.317384	-0.111269	100.000000
856.000000	3.329201	-0.126235	100.000000
857.000000	3.341063	-0.120935	100.000000
858.000000	3.352948	-0.124057	100.000000
859.000000	3.364827	-0.110139	100.000000
860.000000	3.376701	-0.118688	100.000000
861.000000	3.388599	-0.113269	100.000000
862.000000	3.400546	-0.102488	100.000000
863.000000	3.412537	-0.096602	100.000000
864.000000	3.424554	-0.102189	100.000000
865.000000	3.436585	-0.098275	100.000000
866.000000	3.448638	-0.111476	100.000000
867.000000	3.460735	-0.085763	100.000000
868.000000	3.472893	-0.105868	100.000000
869.000000	3.485107	-0.109087	100.000000
870.000000	3.497362	-0.103532	100.000000
871.000000	3.509654	-0.105146	100.000000
872.000000	3.521997	-0.093092	100.000000
873.000000	3.534413	-0.082284	100.000000
874.000000	3.546912	-0.085268	100.000000
875.000000	3.559492	-0.074784	100.000000
876.000000	3.572150	-0.081136	100.000000
877.000000	3.584858	-0.077594	100.000000
878.000000	3.597569	-0.101227	100.000000
879.000000	3.610276	-0.090984	100.000000
880.000000	3.623024	-0.061356	100.000000
881.000000	3.635839	-0.076431	100.000000
882.000000	3.648707	-0.065750	100.000000
883.000000	3.661610	-0.075898	100.000000
884.000000	3.674530	-0.072320	100.000000
885.000000	3.687455	-0.068419	100.000000
886.000000	3.700387	-0.070024	100.000000
887.000000	3.713329	-0.064497	100.000000
888.000000	3.726278	-0.076311	100.000000
889.000000	3.739223	-0.074390	100.000000
890.000000	3.752159	-0.072195	100.000000
891.000000	3.765067	-0.056833	100.000000
892.000000	3.777936	-0.063213	100.000000
893.000000	3.790774	-0.062520	100.000000
894.000000	3.803575	-0.067677	100.000000
895.000000	3.816335	-0.067404	100.000000
896.000000	3.829041	-0.077768	100.000000
897.000000	3.841697	-0.047831	100.000000
898.000000	3.854336	-0.066735	100.000000
899.000000	3.866965	-0.059347	100.000000
900.000000	3.879560	-0.062733	100.000000
901.000000	3.892104	-0.057048	100.000000
902.000000	3.904592	-0.070777	100.000000
903.000000	3.917041	-0.056949	100.000000
904.000000	3.929475	-0.053008	100.000000
905.000000	3.941903	-0.066438	100.000000
906.000000	3.954318	-0.079811	100.000000
907.000000	3.966699	-0.070988	100.000000
908.000000	3.979031	-0.063842	100.000000
909.000000	3.991303	-0.068772	100.000000
910.000000	4.003523	-0.055044	100.000000
911.000000	4.015726	-0.058025	100.000000
912.000000	4.027936	-0.059433	100.000000
913.000000	4.040119	-0.060752	100.000000
914.000000	4.052234	-0.067337	100.000000
915.000000	4.064288	-0.077484	100.000000
916.000000	4.076295	-0.046311	100.000000
917.000000	4.088253	-0.040872	100.000000
918.000000	4.100162	-0.033824	100.000000
919.000000	4.112031	-0.036649	100.000000
920.000000	4.123858	-0.058468	100.000000
921.000000	4.135634	-0.063688	100.000000
922.000000	4.147370	-0.053193	100.000000
923.000000	4.159099	-0.054542	100.000000
924.000000	4.170827	-0.049030	100.000000
925.000000	4.182556	-0.052210	100.000000
926.000000	4.194290	-0.046562	100.000000
927.000000	4.206002	-0.060122	100.000000
928.000000	4.217664	-0.052837	100.000000
929.000000	4.229278	-0.044295	100.000000
930.000000	4.240874	-0.055834	100.000000
931.000000	4.252467	-0.044993	100.000000
932.000000	4.264031	-0.043144	100.000000
933.000000	4.275546	-0.053058	100.000000
934.000000	4.287010	-0.046299	100.000000
935.000000	4.298428	-0.064808	100.000000
936.000000	4.309804	-0.054238	100.000000
937.000000	4.321142	-0.047014	100.000000
938.000000	4.332462	-0.051621	100.000000
939.000000	4.343753	-0.058369	100.000000
940.000000	4.354997	-0.070234	100.000000
941.000000	4.366189	-0.045955	100.000000
942.000000	4.377324	-0.057706	100.000000
943.000000	4.388405	-0.043714	100.000000
944.000000	4.399446	-0.053601	100.000000
945.000000	4.410462	-0.055151	100.000000
946.000000	4.421439	-0.051435	100.000000
947.000000	4.432348	-0.068217	100.000000
948.000000	4.443200	-0.040493	100.000000
949.000000	4.454043	-0.062743	100.000000
950.000000	4.464914	-0.052042	100.000000
951.000000	4.475824	-0.051949	100.000000
952.000000	4.486774	-0.058293	100.000000
953.000000	4.497753	-0.049494	100.000000
954.000000	4.508744	-0.056133	100.000000
955.000000	4.519740	-0.042290	100.000000
956.000000	4.530756	-0.052187	100.000000
957.000000	4.541813	-0.048477	100.000000
958.000000	4.552900	-0.059902	100.000000
959.000000	4.563976	-0.044376	100.000000
960.000000	4.575036	-0.045886	100.000000
961.000000	4.586107	-0.052304	100.000000
962.000000	4.597203	-0.035085	100.000000
963.000000	4.608328	-0.056882	100.000000
964.000000	4.619476	-0.062112	100.000000
965.000000	4.630623	-0.041056	100.000000
966.000000	4.641746	-0.068365	100.000000
967.000000	4.652839	-0.042455	100.000000
968.000000	4.663909	-0.057447	100.000000
969.000000	4.674951	-0.051896	100.000000
970.000000	4.685954	-0.043126	100.000000
971.000000	4.696898	-0.060079	100.000000
972.000000	4.707766	-0.047947	100.000000
973.000000	4.718583	-0.061351	100.000000
974.000000	4.729377	-0.059250	100.000000
975.000000	4.740134	-0.037120	100.000000
976.000000	4.750825	-0.082380	100.000000
977.000000	4.761424	-0.089369	100.000000
978.000000	4.771922	-0.065262	100.000000
979.000000	4.782339	-0.063499	100.000000
980.000000	4.792713	-0.061261	100.000000
981.000000	4.803078	-0.074717	100.000000
982.000000	4.813433	-0.076128	100.000000
983.000000	4.823752	-0.070648	100.000000
984.000000	4.834014	-0.089136	100.000000
985.000000	4.844200	-0.087423	100.000000
986.000000	4.854305	-0.096081	100.000000
987.000000	4.864356	-0.090549	100.000000
988.000000	4.874390	-0.090130	100.000000
989.000000	4.884406	-0.105500	100.000000
990.000000	4.894380	-0.113672	100.000000
991.000000	4.904294	-0.096292	100.000000
992.000000	4.914124	-0.121643	100.000000
993.000000	4.923869	-0.106249	100.000000
994.000000	4.933566	-0.110994	100.000000
995.000000	4.943236	-0.115675	100.000000
996.000000	4.952874	-0.134309	100.000000
997.000000	4.962481	-0.111757	100.000000
998.000000	4.972060	-0.128983	100.000000
999.000000	4.981625	-0.128507	100.000000
1000.000000	4.991205	-0.111017	100.000000
1001.000000	5.000820	-0.127805	100.000000
1002.000000	5.010472	-0.137959	100.000000
1003.000000	5.020155	-0.123716	100.000000
1004.000000	5.029865	-0.147627	100.000000
1005.000000	5.039595	-0.147698	100.000000
1006.000000	5.049344	-0.145419	100.000000
1007.000000	5.059116	-0.133224	100.000000
1008.000000	5.068923	-0.139765	100.000000
1009.000000	5.078764	-0.144497	100.000000
1010.000000	5.088607	-0.159609	100.000000
1011.000000	5.098426	-0.147418	100.000000
1012.000000	5.108236	-0.164815	100.000000
1013.000000	5.118076	-0.152474	100.000000
1014.000000	5.127970	-0.170791	100.000000
1015.000000	5.137901	-0.149834	100.000000
1016.000000	5.147834	-0.148021	100.000000
1017.000000	5.157744	-0.178573	100.000000
1018.000000	5.167614	-0.169880	100.000000
1019.000000	5.177452	-0.147300	100.000000
1020.000000	5.187275	-0.169124	100.000000
1021.000000	5.197093	-0.166941	100.000000
1022.000000	5.206903	-0.175516	100.000000
1023.000000	5.216694	-0.175367	100.000000
1024.000000	5.226471	-0.190667	100.000000
1025.000000	5.236243	-0.174850	100.000000
1026.000000	5.246017	-0.185146	100.000000
1027.000000	5.255796	-0.188119	100.000000
1028.000000	5.265584	-0.175916	100.000000
1029.000000	5.275372	-0.201222	100.000000
1030.000000	5.285150	-0.192676	100.000000
1031.000000	5.294917	-0.221599	100.000000
1032.000000	5.304681	-0.185392	100.000000
1033.000000	5.314454	-0.193566	100.000000
1034.000000	5.324241	-0.202072	100.000000
1035.000000	5.334030	-0.198043	100.000000
1036.000000	5.343801	-0.216795	100.000000
1037.000000	5.353550	-0.231913	100.000000
1038.000000	5.363269	-0.207945	100.000000
1039.000000	5.372965	-0.221297	100.000000
1040.000000	5.382661	-0.207439	100.000000
1041.000000	5.392362	-0.231158	100.000000
1042.000000	5.402043	-0.242823	100.000000
1043.000000	5.411693	-0.218791	100.000000
1044.000000	5.421323	-0.233923	100.000000
1045.000000	5.430944	-0.256148	100.000000
1046.000000	5.440580	-0.236680	100.000000
1047.000000	5.450243	-0.231458	100.000000
1048.000000	5.459923	-0.246233	100.000000
1049.000000	5.469621	-0.264991	100.000000
1050.000000	5.479359	-0.239157	100.000000
1051.000000	5.489159	-0.238898	100.000000
1052.000000	5.499027	-0.254192	100.000000
1053.000000	5.508973	-0.255383	100.000000
1054.000000	5.519014	-0.241330	100.000000
1055.000000	5.529148	-0.247927	100.000000
1056.000000	5.539348	-0.257783	100.000000
1057.000000	5.549601	-0.248853	100.000000
1058.000000	5.559926	-0.259077	100.000000
1059.000000	5.570349	-0.260543	100.000000
1060.000000	5.580877	-0.265495	100.000000
1061.000000	5.591503	-0.270229	100.000000
1062.000000	5.602217	-0.275197	100.000000
1063.000000	5.613020	-0.256100	100.000000
1064.000000	5.623909	-0.262480	100.000000
1065.000000	5.634873	-0.264099	100.000000
1066.000000	5.645912	-0.251814	100.000000
1067.000000	5.657026	-0.254703	100.000000
1068.000000	5.668189	-0.271388	100.000000
1069.000000	5.679379	-0.270138	100.000000
1070.000000	5.690610	-0.262657	100.000000
1071.000000	5.701909	-0.264010	100.000000
1072.000000	5.713292	-0.272282	100.000000
1073.000000	5.724751	-0.277083	100.000000
1074.000000	5.736260	-0.264938	100.000000
1075.000000	5.747797	-0.256060	100.000000
1076.000000	5.759351	-0.264565	100.000000
1077.000000	5.770927	-0.258964	100.000000
1078.000000	5.782545	-0.239717	100.000000
1079.000000	5.794223	-0.251493	100.000000
1080.000000	5.805946	-0.270149	100.000000
1081.000000	5.817686	-0.261258	100.000000
1082.000000	5.829427	-0.278060	100.000000
1083.000000	5.841173	-0.262593	100.000000
1084.000000	5.852947	-0.257167	100.000000
1085.000000	5.864759	-0.263654	100.000000
1086.000000	5.876583	-0.254524	100.000000
1087.000000	5.888388	-0.271579	100.000000
1088.000000	5.900172	-0.262844	100.000000
1089.000000	5.911955	-0.252294	100.000000
1090.000000	5.923770	-0.248230	100.000000
1091.000000	5.935622	-0.272014	100.000000
1092.000000	5.947486	-0.261248	100.000000
1093.000000	5.959362	-0.269732	100.000000
1094.000000	5.971274	-0.254104	100.000000
1095.000000	5.983247	-0.265670	100.000000
1096.000000	5.995282	-0.248206	100.000000
1097.000000	6.007381	-0.251230	100.000000
1098.000000	6.019541	-0.266200	100.000000
1099.000000	6.031745	-0.255924	100.000000
1100.000000	6.043975	-0.250402	100.000000
1101.000000	6.056243	-0.250481	100.000000
1102.000000	6.068557	-0.258561	100.000000
1103.000000	6.080902	-0.261512	100.000000
1104.000000	6.093275	-0.250868	100.000000
1105.000000	6.105659	-0.272865	100.000000
1106.000000	6.118041	-0.263924	100.000000
1107.000000	6.130439	-0.267233	100.000000
1108.000000	6.142880	-0.275705	100.000000
1109.000000	6.155365	-0.263001	100.000000
1110.000000	6.167873	-0.267918	100.000000
1111.000000	6.180401	-0.267403	100.000000
1112.000000	6.192934	-0.268803	100.000000
1113.000000	6.205443	-0.291148	100.000000
1114.000000	6.217946	-0.282176	100.000000
1115.000000	6.230464	-0.289996	100.000000
1116.000000	6.243006	-0.258857	100.000000
1117.000000	6.255577	-0.277446	100.000000
1118.000000	6.268172	-0.280480	100.000000
1119.000000	6.280778	-0.288748	100.000000
1120.000000	6.293392	-0.291894	100.000000
1121.000000	6.306015	-0.288169	100.000000
1122.000000	6.318667	-0.303216	100.000000
1123.000000	6.331366	-0.283657	100.000000
1124.000000	6.344092	-0.276590	100.000000
1125.000000	6.356826	-0.293518	100.000000
1126.000000	6.369574	-0.288248	100.000000
1127.000000	6.382326	-0.296355	100.000000
1128.000000	6.395053	-0.309677	100.000000
1129.000000	6.407764	-0.292250	100.000000
1130.000000	6.420495	-0.291764	100.000000
1131.000000	6.433256	-0.294871	100.000000
1132.000000	6.446031	-0.289385	100.000000
1133.000000	6.458798	-0.314655	100.000000
1134.000000	6.471553	-0.319621	100.000000
1135.000000	6.484307	-0.305568	100.000000
1136.000000	6.497062	-0.305257	100.000000
1137.000000	6.509821	-0.313319	100.000000
1138.000000	6.522583	-0.309549	100.000000
1139.000000	6.535333	-0.314268	100.000000
1140.000000	6.548065	-0.308951	100.000000
1141.000000	6.560774	-0.301811	100.000000
1142.000000	6.573460	-0.320161	100.000000
1143.000000	6.586145	-0.309736	100.000000
1144.000000	6.598851	-0.319418	100.000000
1145.000000	6.611557	-0.332696	100.000000
1146.000000	6.624225	-0.356622	100.000000
1147.000000	6.636850	-0.325874	100.000000
1148.000000	6.649454	-0.313013	100.000000
1149.000000	6.662074	-0.317467	100.000000
1150.000000	6.674741	-0.310478	100.000000
1151.000000	6.687449	-0.327059	100.000000
1152.000000	6.700176	-0.330372	100.000000
1153.000000	6.712899	-0.324949	100.000000
1154.000000	6.725618	-0.326448	100.000000
1155.000000	6.738358	-0.331137	100.000000
1156.000000	6.751139	-0.318632	100.000000
1157.000000	6.763954	-0.302782	100.000000
1158.000000	6.776802	-0.326292	100.000000
1159.000000	6.789668	-0.308749	100.000000
1160.000000	6.802541	-0.306775	100.000000
1161.000000	6.815445	-0.313403	100.000000
1162.000000	6.828410	-0.299066	100.000000
1163.000000	6.841437	-0.303773	100.000000
1164.000000	6.854529	-0.327121	100.000000
1165.000000	6.867689	-0.306728	100.000000
1166.000000	6.880898	-0.309744	100.000000
1167.000000	6.894144	-0.287305	100.000000
1168.000000	6.907437	-0.293325	100.000000
1169.000000	6.920789	-0.288066	100.000000
1170.000000	6.934188	-0.311595	100.000000
1171.000000	6.947604	-0.309434	100.000000
1172.000000	6.961006	-0.286930	100.000000
1173.000000	6.974369	-0.308903	100.000000
1174.000000	6.987692	-0.293117	100.000000
1175.000000	7.000978	-0.289128	100.000000
1176.000000	7.014217	-0.288713	100.000000
1177.000000	7.027408	-0.290190	100.000000
1178.000000	7.040562	-0.302010	100.000000
1179.000000	7.053663	-0.306728	100.000000
1180.000000	7.066693	-0.294486	100.000000
1181.000000	7.079662	-0.292203	100.000000
1182.000000	7.092583	-0.296893	100.000000
1183.000000	7.105461	-0.291553	100.000000
1184.000000	7.118293	-0.299682	100.000000
1185.000000	7.131059	-0.296057	100.000000
1186.000000	7.143754	-0.304324	100.000000
1187.000000	7.156392	-0.290051	100.000000
1188.000000	7.168992	-0.298402	100.000000
1189.000000	7.181565	-0.309814	100.000000
1190.000000	7.194092	-0.293972	100.000000
1191.000000	7.206543	-0.305728	100.000000
1192.000000	7.218906	-0.290089	100.000000
1193.000000	7.231195	-0.299914	100.000000
1194.000000	7.243443	-0.275967	100.000000
1195.000000	7.255655	-0.288644	100.000000
1196.000000	7.267811	-0.303983	100.000000
1197.000000	7.279901	-0.289823	100.000000
1198.000000	7.291932	-0.291223	100.000000
1199.000000	7.303917	-0.282722	100.000000
1200.000000	7.315871	-0.273463	100.000000
1201.000000	7.327799	-0.290040	100.000000
1202.000000	7.339695	-0.281100	100.000000
1203.000000	7.351545	-0.291362	100.000000
1204.000000	7.363343	-0.270745	100.000000
1205.000000	7.375099	-0.280391	100.000000
1206.000000	7.386839	-0.276654	100.000000
1207.000000	7.398584	-0.266071	100.000000
1208.000000	7.410341	-0.270449	100.000000
1209.000000	7.422104	-0.275523	100.000000
1210.000000	7.433857	-0.278478	100.000000
1211.000000	7.445584	-0.283532	100.000000
1212.000000	7.457283	-0.274350	100.000000
1213.000000	7.468970	-0.267233	100.000000
1214.000000	7.480659	-0.280456	100.000000
1215.000000	7.492355	-0.273355	100.000000
1216.000000	7.504042	-0.260777	100.000000
1217.000000	7.515701	-0.265573	100.000000
1218.000000	7.527335	-0.265604	100.000000
1219.000000	7.538969	-0.247985	100.000000
1220.000000	7.550621	-0.252700	100.000000
1221.000000	7.562291	-0.248854	100.000000
1222.000000	7.573985	-0.238219	100.000000
1223.000000	7.585694	-0.246524	100.000000
1224.000000	7.597403	-0.258362	100.000000
1225.000000	7.609100	-0.230447	100.000000
1226.000000	7.620772	-0.237164	100.000000
1227.000000	7.632414	-0.219762	100.000000
1228.000000	7.644020	-0.234509	100.000000
1229.000000	7.655599	-0.227437	100.000000
1230.000000	7.667156	-0.222028	100.000000
1231.000000	7.678661	-0.218130	100.000000
1232.000000	7.690102	-0.242103	100.000000
1233.000000	7.701492	-0.209058	100.000000
1234.000000	7.712837	-0.220689	100.000000
1235.000000	7.724137	-0.206736	100.000000
1236.000000	7.735413	-0.196340	100.000000
1237.000000	7.746670	-0.187279	100.000000
1238.000000	7.757881	-0.229763	100.000000
1239.000000	7.769008	-0.205668	100.000000
1240.000000	7.780058	-0.189997	100.000000
1241.000000	7.791061	-0.175928	100.000000
1242.000000	7.802029	-0.186271	100.000000
1243.000000	7.812950	-0.190823	100.000000
1244.000000	7.823805	-0.173077	100.000000
1245.000000	7.834579	-0.176427	100.000000
1246.000000	7.845268	-0.173223	100.000000
1247.000000	7.855880	-0.186628	100.000000
1248.000000	7.866440	-0.160394	100.000000
1249.000000	7.876953	-0.165202	100.000000
1250.000000	7.887405	-0.175384	100.000000
1251.000000	7.897786	-0.156253	100.000000
1252.000000	7.908102	-0.157807	100.000000
1253.000000	7.918364	-0.152592	100.000000
1254.000000	7.928588	-0.143572	100.000000
1255.000000	7.938782	-0.167339	100.000000
1256.000000	7.948925	-0.149661	100.000000
1257.000000	7.958998	-0.154847	100.000000
1258.000000	7.969001	-0.171649	100.000000
1259.000000	7.978936	-0.157776	100.000000
1260.000000	7.988826	-0.162499	100.000000
1261.000000	7.998693	-0.165668	100.000000
1262.000000	8.008520	-0.144893	100.000000
1263.000000	8.018284	-0.141569	100.000000
1264.000000	8.027961	-0.137905	100.000000
1265.000000	8.037577	-0.147980	100.000000
1266.000000	8.047181	-0.142494	100.000000
1267.000000	8.056773	-0.147341	100.000000
1268.000000	8.066349	-0.152137	100.000000
1269.000000	8.075929	-0.145290	100.000000
1270.000000	8.085515	-0.158800	100.000000
1271.000000	8.095105	-0.149794	100.000000
1272.000000	8.104711	-0.139703	100.000000
1273.000000	8.114322	-0.157898	100.000000
1274.000000	8.123911	-0.157863	100.000000
1275.000000	8.133455	-0.167897	100.000000
1276.000000	8.142909	-0.153909	100.000000
1277.000000	8.152257	-0.160715	100.000000
1278.000000	8.161526	-0.160379	100.000000
1279.000000	8.170720	-0.141016	100.000000
1280.000000	8.179835	-0.148105	100.000000
1281.000000	8.188873	-0.154414	100.000000
1282.000000	8.197801	-0.162930	100.000000
1283.000000	8.206610	-0.156005	100.000000
1284.000000	8.215333	-0.152455	100.000000
1285.000000	8.223984	-0.152144	100.000000
1286.000000	8.232562	-0.143040	100.000000
1287.000000	8.241073	-0.160181	100.000000
1288.000000	8.249516	-0.140843	100.000000
1289.000000	8.257878	-0.154520	100.000000
1290.000000	8.266165	-0.149168	100.000000
1291.000000	8.274404	-0.147396	100.000000
1292.000000	8.282617	-0.146881	100.000000
1293.000000	8.290826	-0.158803	100.000000
1294.000000	8.299044	-0.146686	100.000000
1295.000000	8.307261	-0.141113	100.000000
1296.000000	8.315456	-0.147581	100.000000
1297.000000	8.323622	-0.140747	100.000000
1298.000000	8.331785	-0.145897	100.000000
1299.000000	8.339988	-0.130209	100.000000
1300.000000	8.348251	-0.121022	100.000000
1301.000000	8.356586	-0.144792	100.000000
1302.000000	8.365008	-0.137676	100.000000
1303.000000	8.373513	-0.139140	100.000000
1304.000000	8.382080	-0.140457	100.000000
1305.000000	8.390732	-0.130406	100.000000
1306.000000	8.399522	-0.112637	100.000000
1307.000000	8.408472	-0.123988	100.000000
1308.000000	8.417565	-0.123663	100.000000
1309.000000	8.426782	-0.125266	100.000000
1310.000000	8.436095	-0.121599	100.000000
1311.000000	8.445487	-0.128177	100.000000
1312.000000	8.454994	-0.114128	100.000000
1313.000000	8.464663	-0.120728	100.000000
1314.000000	8.474515	-0.089342	100.000000
1315.000000	8.484528	-0.102812	100.000000
1316.000000	8.494663	-0.095553	100.000000
1317.000000	8.504912	-0.104183	100.000000
1318.000000	8.515296	-0.076289	100.000000
1319.000000	8.525821	-0.096617	100.000000
1320.000000	8.536486	-0.085890	100.000000
1321.000000	8.547286	-0.104280	100.000000
1322.000000	8.558202	-0.110663	100.000000
1323.000000	8.569194	-0.088490	100.000000
1324.000000	8.580239	-0.090119	100.000000
1325.000000	8.591356	-0.084777	100.000000
1326.000000	8.602562	-0.087711	100.000000
1327.000000	8.613848	-0.095793	100.000000
1328.000000	8.625186	-0.081807	100.000000
1329.000000	8.636537	-0.100399	100.000000
1330.000000	8.647869	-0.094847	100.000000
1331.000000	8.659184	-0.095086	100.000000
1332.000000	8.670521	-0.094444	100.000000
1333.000000	8.681910	-0.078652	100.000000
1334.000000	8.693328	-0.081458	100.000000
1335.000000	8.704718	-0.089877	100.000000
1336.000000	8.716050	-0.105174	100.000000
1337.000000	8.727333	-0.096410	100.000000
1338.000000	8.738571	-0.073992	100.000000
1339.000000	8.749770	-0.099334	100.000000
1340.000000	8.760940	-0.091954	100.000000
1341.000000	8.772088	-0.100356	100.000000
1342.000000	8.783175	-0.105200	100.000000
1343.000000	8.794165	-0.096565	100.000000
1344.000000	8.805064	-0.110143	100.000000
1345.000000	8.815897	-0.092519	100.000000
1346.000000	8.826682	-0.093935	100.000000
1347.000000	8.837424	-0.093737	100.000000
1348.000000	8.848109	-0.105365	100.000000
1349.000000	8.858715	-0.108714	100.000000
1350.000000	8.869239	-0.098241	100.000000
1351.000000	8.879695	-0.102874	100.000000
1352.000000	8.890086	-0.099372	100.000000
1353.000000	8.900411	-0.095602	100.000000
1354.000000	8.910669	-0.110742	100.000000
1355.000000	8.920849	-0.093538	100.000000
1356.000000	8.930932	-0.100128	100.000000
1357.000000	8.940929	-0.074235	100.000000
1358.000000	8.950869	-0.094624	100.000000
1359.000000	8.960757	-0.090740	100.000000
1360.000000	8.970572	-0.088818	100.000000
1361.000000	8.980291	-0.105822	100.000000
1362.000000	8.989899	-0.091925	100.000000
1363.000000	8.999411	-0.084708	100.000000
1364.000000	9.008861	-0.091281	100.000000
1365.000000	9.018272	-0.078984	100.000000
1366.000000	9.027646	-0.080464	100.000000
1367.000000	9.036954	-0.083409	100.000000
1368.000000	9.046167	-0.095692	100.000000
1369.000000	9.055277	-0.087035	100.000000
1370.000000	9.064290	-0.074372	100.000000
1371.000000	9.073214	-0.067600	100.000000
1372.000000	9.082059	-0.098033	100.000000
1373.000000	9.090824	-0.079079	100.000000
1374.000000	9.099495	-0.095768	100.000000
1375.000000	9.108063	-0.071673	100.000000
1376.000000	9.116528	-0.097368	100.000000
1377.000000	9.124893	-0.078115	100.000000
1378.000000	9.133159	-0.072941	100.000000
1379.000000	9.141333	-0.089714	100.000000
1380.000000	9.149423	-0.065689	100.000000
1381.000000	9.157428	-0.080719	100.000000
1382.000000	9.165327	-0.070428	100.000000
1383.000000	9.173099	-0.102848	100.000000
1384.000000	9.180744	-0.066733	100.000000
1385.000000	9.188285	-0.075023	100.000000
1386.000000	9.195739	-0.083433	100.000000
1387.000000	9.203114	-0.071193	100.000000
1388.000000	9.210401	-0.076056	100.000000
1389.000000	9.217589	-0.086158	100.000000
1390.000000	9.224676	-0.089706	100.000000
1391.000000	9.231670	-0.077272	100.000000
1392.000000	9.238586	-0.051633	100.000000
1393.000000	9.245432	-0.052940	100.000000
1394.000000	9.252216	-0.057854	100.000000
1395.000000	9.258934	-0.086801	100.000000
1396.000000	9.265559	-0.057540	100.000000
1397.000000	9.272080	-0.067893	100.000000
1398.000000	9.278519	-0.062537	100.000000
1399.000000	9.284900	-0.057326	100.000000
1400.000000	9.291232	-0.067369	100.000000
1401.000000	9.297514	-0.070395	100.000000
1402.000000	9.303735	-0.068654	100.000000
1403.000000	9.309879	-0.076935	100.000000
1404.000000	9.315945	-0.063435	100.000000
1405.000000	9.321946	-0.059570	100.000000
1406.000000	9.327900	-0.050758	100.000000
1407.000000	9.333820	-0.053991	100.000000
1408.000000	9.339705	-0.074457	100.000000
1409.000000	9.345531	-0.075865	100.000000
1410.000000	9.351277	-0.053408	100.000000
1411.000000	9.356964	-0.056894	100.000000
1412.000000	9.362631	-0.054890	100.000000
1413.000000	9.368286	-0.038982	100.000000
1414.000000	9.373909	-0.083514	100.000000
1415.000000	9.379490	-0.073264	100.000000
1416.000000	9.385044	-0.049112	100.000000
1417.000000	9.390611	-0.052208	100.000000
1418.000000	9.396221	-0.065492	100.000000
1419.000000	9.401864	-0.053493	100.000000
1420.000000	9.407520	-0.060286	100.000000
1421.000000	9.413181	-0.048109	100.000000
1422.000000	9.418849	-0.046144	100.000000
1423.000000	9.424547	-0.032370	100.000000
1424.000000	9.430296	-0.040627	100.000000
1425.000000	9.436069	-0.040165	100.000000
1426.000000	9.441831	-0.046832	100.000000
1427.000000	9.447579	-0.034822	100.000000
1428.000000	9.453329	-0.041709	100.000000
1429.000000	9.459107	-0.022502	100.000000
1430.000000	9.464934	-0.042706	100.000000
1431.000000	9.470789	-0.054533	100.000000
1432.000000	9.476655	-0.059602	100.000000
1433.000000	9.482529	-0.035592	100.000000
1434.000000	9.488407	-0.042371	100.000000
1435.000000	9.494290	-0.042207	100.000000
1436.000000	9.500169	-0.052243	100.000000
1437.000000	9.506038	-0.019428	100.000000
1438.000000	9.511911	-0.043081	100.000000
1439.000000	9.517777	-0.031033	100.000000
1440.000000	9.523612	-0.043167	100.000000
1441.000000	9.529403	-0.025907	100.000000
1442.000000	9.535155	-0.011926	100.000000
1443.000000	9.540889	-0.020314	100.000000
1444.000000	9.546623	-0.023331	100.000000
1445.000000	9.552341	-0.031840	100.000000
1446.000000	9.557999	-0.024820	100.000000
1447.000000	9.563590	-0.026472	100.000000
1448.000000	9.569142	-0.046694	100.000000
1449.000000	9.574681	-0.026364	100.000000
1450.000000	9.580211	-0.019129	100.000000
1451.000000	9.585727	-0.030647	100.000000
1452.000000	9.591213	-0.030483	100.000000
1453.000000	9.596639	-0.040980	100.000000
1454.000000	9.602002	-0.021924	100.000000
1455.000000	9.607330	-0.018359	100.000000
1456.000000	9.612646	-0.028478	100.000000
1457.000000	9.617952	-0.028137	100.000000
1458.000000	9.623241	-0.005526	100.000000
1459.000000	9.628504	-0.038017	100.000000
1460.000000	9.633728	-0.036179	100.000000
1461.000000	9.638909	-0.015661	100.000000
1462.000000	9.644072	-0.031018	100.000000
1463.000000	9.649243	-0.020521	100.000000
1464.000000	9.654424	-0.004622	100.000000
1465.000000	9.659611	-0.021450	100.000000
1466.000000	9.664796	-0.019733	100.000000
1467.000000	9.669975	-0.029911	100.000000
1468.000000	9.675159	-0.019595	100.000000
1469.000000	9.680373	-0.026271	100.000000
1470.000000	9.685636	-0.020957	100.000000
1471.000000	9.690950	-0.029300	100.000000
1472.000000	9.696290	-0.025428	100.000000
1473.000000	9.701649	-0.018640	100.000000
1474.000000	9.707023	-0.042603	100.000000
1475.000000	9.712400	-0.023799	100.000000
1476.000000	9.717799	-0.011420	100.000000
1477.000000	9.723256	-0.022899	100.000000
1478.000000	9.728769	-0.038431	100.000000
1479.000000	9.734312	-0.026110	100.000000
1480.000000	9.739865	-0.020910	100.000000
1481.000000	9.745427	-0.029508	100.000000
1482.000000	9.751005	-0.029151	100.000000
1483.000000	9.756603	-0.030551	100.000000
1484.000000	9.762218	-0.032243	100.000000
1485.000000	9.767847	-0.037100	100.000000
1486.000000	9.773482	-0.036895	100.000000
1487.000000	9.779106	-0.026536	100.000000
1488.000000	9.784717	-0.033139	100.000000
1489.000000	9.790335	-0.022624	100.000000
1490.000000	9.795989	-0.024231	100.000000
1491.000000	9.801699	-0.011975	100.000000
1492.000000	9.807461	-0.018740	100.000000
1493.000000	9.813257	-0.025549	100.000000
1494.000000	9.819074	-0.018614	100.000000
1495.000000	9.824925	-0.009664	100.000000
1496.000000	9.830834	-0.026656	100.000000
1497.000000	9.836801	-0.031522	100.000000
1498.000000	9.842808	-0.024372	100.000000
1499.000000	9.848849	-0.015663	100.000000
1500.000000	9.854921	-0.029037	100.000000
1501.000000	9.861031	-0.022299	100.000000
1502.000000	9.867196	0.000445	100.000000
1503.000000	9.873430	-0.014798	100.000000
1504.000000	9.879728	-0.009250	100.000000
1505.000000	9.886060	-0.012607	100.000000
1506.000000	9.892397	-0.010575	100.000000
1507.000000	9.898733	-0.012382	100.000000
1508.000000	9.905084	-0.000299	100.000000
1509.000000	9.911458	-0.006815	100.000000
1510.000000	9.917854	-0.010049	100.000000
1511.000000	9.924254	-0.007738	100.000000
1512.000000	9.930633	-0.011445	100.000000
1513.000000	9.936981	0.010829	100.000000
1514.000000	9.943299	-0.007873	100.000000
1515.000000	9.949607	-0.002436	100.000000
1516.000000	9.955917	0.006349	100.000000
1517.000000	9.962229	-0.008737	100.000000
1518.000000	9.968534	-0.010276	100.000000
1519.000000	9.974816	0.003653	100.000000
1520.000000	9.981062	0.005188	100.000000
1521.000000	9.987274	-0.006677	100.000000
1522.000000	9.993466	0.005532	100.000000
1523.000000	9.999636	0.000565	100.000000
1524.000000	10.005780	-0.005689	100.000000
1525.000000	10.011893	-0.022829	100.000000
1526.000000	10.017954	-0.021254	100.000000
1527.000000	10.023953	-0.000508	100.000000
1528.000000	10.029915	-0.003738	100.000000
1529.000000	10.035860	-6.701112E-5	100.000000
1530.000000	10.041772	0.013746	100.000000
1531.000000	10.047628	-0.011682	100.000000
1532.000000	10.053418	-0.006579	100.000000
1533.000000	10.059145	-0.004558	100.000000
1534.000000	10.064821	0.003907	100.000000
1535.000000	10.070456	0.007567	100.000000
1536.000000	10.076054	0.004449	100.000000
1537.000000	10.081597	-0.005536	100.000000
1538.000000	10.087060	-0.010684	100.000000
1539.000000	10.092435	-0.019306	100.000000
1540.000000	10.097744	-0.012212	100.000000
1541.000000	10.103020	-0.016810	100.000000
1542.000000	10.108279	-0.006702	100.000000
1543.000000	10.113513	0.003765	100.000000
1544.000000	10.118704	0.002303	100.000000
1545.000000	10.123829	-0.011203	100.000000
1546.000000	10.128896	-0.005325	100.000000
1547.000000	10.133942	0.000762	100.000000
1548.000000	10.138980	-0.005732	100.000000
1549.000000	10.144001	0.011486	100.000000
1550.000000	10.149001	-0.022499	100.000000
1551.000000	10.153972	0.017028	100.000000
1552.000000	10.158896	-0.017386	100.000000
1553.000000	10.163766	0.001640	100.000000
1554.000000	10.168595	-0.003298	100.000000
1555.000000	10.173404	0.005475	100.000000
1556.000000	10.178211	0.005623	100.000000
1557.000000	10.183021	0.007559	100.000000
1558.000000	10.187827	0.009536	100.000000
1559.000000	10.192612	-0.004299	100.000000
1560.000000	10.197372	0.005660	100.000000
1561.000000	10.202124	-0.004059	100.000000
1562.000000	10.206892	-0.003648	100.000000
1563.000000	10.211685	0.013593	100.000000
1564.000000	10.216504	0.001640	100.000000
1565.000000	10.221338	-0.005141	100.000000
1566.000000	10.226190	-0.011923	100.000000
1567.000000	10.231087	0.015560	100.000000
1568.000000	10.236039	0.019164	100.000000
1569.000000	10.241034	0.001010	100.000000
1570.000000	10.246059	0.007947	100.000000
1571.000000	10.251103	-0.017746	100.000000
1572.000000	10.256160	0.001238	100.000000
1573.000000	10.261243	0.001281	100.000000
1574.000000	10.266375	0.027261	100.000000
1575.000000	10.271561	0.022391	100.000000
1576.000000	10.276802	0.007243	100.000000
1577.000000	10.282069	0.009149	100.000000
1578.000000	10.287328	0.005654	100.000000
1579.000000	10.292573	0.004002	100.000000
1580.000000	10.297820	0.016182	100.000000
1581.000000	10.303088	0.021597	100.000000
1582.000000	10.308379	0.011368	100.000000
1583.000000	10.313679	0.023567	100.000000
1584.000000	10.318968	0.013643	100.000000
1585.000000	10.324226	0.001524	100.000000
1586.000000	10.329451	0.016719	100.000000
1587.000000	10.334660	-9.416268E-5	100.000000
1588.000000	10.339867	0.032735	100.000000
1589.000000	10.345074	0.022729	100.000000
1590.000000	10.350287	0.028126	100.000000
1591.000000	10.355501	0.024613	100.000000
1592.000000	10.360691	0.007629	100.000000
1593.000000	10.365854	0.009198	100.000000
1594.000000	10.371002	0.030071	100.000000
1595.000000	10.376153	0.033567	100.000000
1596.000000	10.381319	0.033844	100.000000
1597.000000	10.386495	0.024024	100.000000
1598.000000	10.391650	0.017340	100.000000
1599.000000	10.396757	0.003570	100.000000
1600.000000	10.401801	0.015753	100.000000
1601.000000	10.406798	0.002358	100.000000
1602.000000	10.411774	0.033181	100.000000
1603.000000	10.416736	0.035364	100.000000
1604.000000	10.421681	0.026765	100.000000
1605.000000	10.426607	0.020038	100.000000
1606.000000	10.431507	0.016665	100.000000
1607.000000	10.436378	0.037171	100.000000
1608.000000	10.441235	0.010029	100.000000
1609.000000	10.446105	0.017148	100.000000
1610.000000	10.450997	0.024220	100.000000
1611.000000	10.455902	0.039798	100.000000
1612.000000	10.460810	0.048415	100.000000
1613.000000	10.465700	0.000752	100.000000
1614.000000	10.470554	0.014417	100.000000
1615.000000	10.475389	0.028238	100.000000
1616.000000	10.480228	0.023747	100.000000
1617.000000	10.485059	0.003083	100.000000
1618.000000	10.489863	0.013232	100.000000
1619.000000	10.494638	0.004953	100.000000
1620.000000	10.499406	0.020591	100.000000
1621.000000	10.504186	0.013842	100.000000
1622.000000	10.508965	0.005439	100.000000
1623.000000	10.513720	-0.002890	100.000000
1624.000000	10.518437	-0.004489	100.000000
1625.000000	10.523119	0.002302	100.000000
1626.000000	10.527778	0.014333	100.000000
1627.000000	10.532424	0.026641	100.000000
1628.000000	10.537073	0.023517	100.000000
1629.000000	10.541735	-0.001889	100.000000
1630.000000	10.546416	0.006679	100.000000
1631.000000	10.551121	0.005051	100.000000
1632.000000	10.555833	0.000191	100.000000
1633.000000	10.560539	0.019027	100.000000
1634.000000	10.565256	-0.008158	100.000000
1635.000000	10.570022	0.022905	100.000000
1636.000000	10.574853	-0.006118	100.000000
1637.000000	10.579738	-0.000746	100.000000
1638.000000	10.584649	-0.011055	100.000000
1639.000000	10.589565	0.007841	100.000000
1640.000000	10.594494	0.021647	100.000000
1641.000000	10.599473	-0.000259	100.000000
1642.000000	10.604527	0.017159	100.000000
1643.000000	10.609653	-0.003267	100.000000
1644.000000	10.614831	-0.001105	100.000000
1645.000000	10.620039	0.011044	100.000000
1646.000000	10.625262	-0.007973	100.000000
1647.000000	10.630506	-0.002672	100.000000
1648.000000	10.635792	0.001152	100.000000
1649.000000	10.641123	0.018412	100.000000
1650.000000	10.646493	0.011574	100.000000
1651.000000	10.651891	-0.003701	100.000000
1652.000000	10.657305	0.001433	100.000000
1653.000000	10.662738	0.006872	100.000000
1654.000000	10.668200	0.000224	100.000000
1655.000000	10.673691	0.008985	100.000000
1656.000000	10.679202	-0.004662	100.000000
1657.000000	10.684715	-0.000638	100.000000
1658.000000	10.690197	-0.002632	100.000000
1659.000000	10.695635	-0.000798	100.000000
1660.000000	10.701051	0.021589	100.000000
1661.000000	10.706457	-0.001919	100.000000
1662.000000	10.711838	-0.001964	100.000000
1663.000000	10.717167	-7.703868E-5	100.000000
1664.000000	10.722434	0.004817	100.000000
1665.000000	10.727656	-0.008521	100.000000
1666.000000	10.732843	-0.004903	100.000000
1667.000000	10.737994	0.010337	100.000000
1668.000000	10.743119	-0.014806	100.000000
1669.000000	10.748221	-0.011290	100.000000
1670.000000	10.753268	-0.012947	100.000000
1671.000000	10.758237	-0.012933	100.000000
1672.000000	10.763139	-0.000770	100.000000
1673.000000	10.767995	-0.004187	100.000000
1674.000000	10.772811	-0.020985	100.000000
1675.000000	10.777578	-0.008625	100.000000
1676.000000	10.782281	-0.005167	100.000000
1677.000000	10.786904	-0.022425	100.000000
1678.000000	10.791445	-0.012088	100.000000
1679.000000	10.795913	-0.011863	100.000000
1680.000000	10.800321	-0.006668	100.000000
1681.000000	10.804676	-0.011925	100.000000
1682.000000	10.808975	-0.038796	100.000000
1683.000000	10.813195	-0.033561	100.000000
1684.000000	10.817319	-0.023297	100.000000
1685.000000	10.821356	-0.031999	100.000000
1686.000000	10.825332	-0.014493	100.000000
1687.000000	10.829269	-0.023147	100.000000
1688.000000	10.833156	-0.010976	100.000000
1689.000000	10.836968	-0.026479	100.000000
1690.000000	10.840706	-0.041783	100.000000
1691.000000	10.844374	-0.036537	100.000000
1692.000000	10.847973	-0.031523	100.000000
1693.000000	10.851506	-0.027890	100.000000
1694.000000	10.854979	-0.032568	100.000000
1695.000000	10.858384	-0.036015	100.000000
1696.000000	10.861696	-0.044646	100.000000
1697.000000	10.864917	-0.031164	100.000000
1698.000000	10.868074	-0.025594	100.000000
1699.000000	10.871181	-0.042633	100.000000
1700.000000	10.874240	-0.038949	100.000000
1701.000000	10.877256	-0.038943	100.000000
1702.000000	10.880223	-0.040838	100.000000
1703.000000	10.883137	-0.038937	100.000000
1704.000000	10.886009	-0.025177	100.000000
1705.000000	10.888859	-0.031944	100.000000
1706.000000	10.891706	-0.042063	100.000000
1707.000000	10.894545	-0.029985	100.000000
1708.000000	10.897360	-0.035150	100.000000
1709.000000	10.900151	-0.028455	100.000000
1710.000000	10.902924	-0.031480	100.000000
1711.000000	10.905678	-0.036568	100.000000
1712.000000	10.908419	-0.031293	100.000000
1713.000000	10.911146	-0.044757	100.000000
1714.000000	10.913842	-0.041517	100.000000
1715.000000	10.916500	-0.040009	100.000000
1716.000000	10.919128	-0.056934	100.000000
1717.000000	10.921728	-0.051834	100.000000
1718.000000	10.924313	-0.044662	100.000000
1719.000000	10.926905	-0.065209	100.000000
1720.000000	10.929510	-0.047904	100.000000
1721.000000	10.932108	-0.042550	100.000000
1722.000000	10.934676	-0.063097	100.000000
1723.000000	10.937211	-0.044417	100.000000
1724.000000	10.939730	-0.047830	100.000000
1725.000000	10.942264	-0.039056	100.000000
1726.000000	10.944837	-0.052784	100.000000
1727.000000	10.947453	-0.050854	100.000000
1728.000000	10.950091	-0.066166	100.000000
1729.000000	10.952730	-0.051230	100.000000
1730.000000	10.955376	-0.052627	100.000000
1731.000000	10.958057	-0.052406	100.000000
1732.000000	10.960796	-0.052678	100.000000
1733.000000	10.963589	-0.047027	100.000000
1734.000000	10.966433	-0.043616	100.000000
1735.000000	10.969313	-0.048881	100.000000
1736.000000	10.972187	-0.041676	100.000000
1737.000000	10.975039	-0.043939	100.000000
1738.000000	10.977889	-0.055551	100.000000
1739.000000	10.980751	-0.055537	100.000000
1740.000000	10.983622	-0.069188	100.000000
1741.000000	10.986474	-0.062080	100.000000
1742.000000	10.989287	-0.069101	100.000000
1743.000000	10.992054	-0.060558	100.000000
1744.000000	10.994780	-0.050031	100.000000
1745.000000	10.997478	-0.063702	100.000000
1746.000000	11.000153	-0.066993	100.000000
1747.000000	11.002801	-0.049810	100.000000
1748.000000	11.005425	-0.060382	100.000000
1749.000000	11.008040	-0.048353	100.000000
1750.000000	11.010670	-0.048333	100.000000
1751.000000	11.013325	-0.051488	100.000000
1752.000000	11.015992	-0.059790	100.000000
1753.000000	11.018649	-0.054744	100.000000
1754.000000	11.021284	-0.049677	100.000000
1755.000000	11.023895	-0.051169	100.000000
1756.000000	11.026491	-0.054859	100.000000
1757.000000	11.029093	-0.058246	100.000000
1758.000000	11.031719	-0.035489	100.000000
1759.000000	11.034372	-0.052621	100.000000
1760.000000	11.037040	-0.064692	100.000000
1761.000000	11.039702	-0.074977	100.000000
1762.000000	11.042351	-0.061164	100.000000
1763.000000	11.044986	-0.055905	100.000000
1764.000000	11.047610	-0.047408	100.000000
1765.000000	11.050228	-0.062438	100.000000
1766.000000	11.052818	-0.054008	100.000000
1767.000000	11.055358	-0.047140	100.000000
1768.000000	11.057871	-0.067761	100.000000
1769.000000	11.060409	-0.045299	100.000000
1770.000000	11.063005	-0.048670	100.000000
1771.000000	11.065654	-0.036630	100.000000
1772.000000	11.068330	-0.041823	100.000000
1773.000000	11.071021	-0.043401	100.000000
1774.000000	11.073727	-0.038263	100.000000
1775.000000	11.076453	-0.044822	100.000000
1776.000000	11.079194	-0.036528	100.000000
1777.000000	11.081939	-0.034410	100.000000
1778.000000	11.084679	-0.041369	100.000000
1779.000000	11.087399	-0.053360	100.000000
1780.000000	11.090083	-0.049937	100.000000
1781.000000	11.092736	-0.044766	100.000000
1782.000000	11.095383	-0.044924	100.000000
1783.000000	11.098035	-0.037616	100.000000
1784.000000	11.100682	-0.028873	100.000000
1785.000000	11.103310	-0.049522	100.000000
1786.000000	11.105901	-0.034143	100.000000
1787.000000	11.108450	-0.044600	100.000000
1788.000000	11.110977	-0.044571	100.000000
1789.000000	11.113502	-0.030531	100.000000
1790.000000	11.116031	-0.035646	100.000000
1791.000000	11.118567	-0.030473	100.000000
1792.000000	11.121094	-0.040541	100.000000
1793.000000	11.123586	-0.016747	100.000000
1794.000000	11.126047	-0.030487	100.000000
1795.000000	11.128507	-0.033727	100.000000
1796.000000	11.130989	-0.023203	100.000000
1797.000000	11.133493	-0.025000	100.000000
1798.000000	11.136007	-0.021748	100.000000
1799.000000	11.138520	-0.019811	100.000000
1800.000000	11.141032	-0.024975	100.000000
1801.000000	11.143557	-0.024787	100.000000
1802.000000	11.146106	-0.026579	100.000000
1803.000000	11.148675	-0.021218	100.000000
1804.000000	11.151237	-0.038636	100.000000
1805.000000	11.153767	-0.024565	100.000000
1806.000000	11.156272	-0.006133	100.000000
1807.000000	11.158776	-0.031654	100.000000
1808.000000	11.161282	-0.021257	100.000000
1809.000000	11.163779	-0.036545	100.000000
1810.000000	11.166247	-0.021251	100.000000
1811.000000	11.168677	-0.017912	100.000000
1812.000000	11.171079	-0.029800	100.000000
1813.000000	11.173461	-0.007606	100.000000
1814.000000	11.175833	-0.016030	100.000000
1815.000000	11.178214	-0.022685	100.000000
1816.000000	11.180589	-0.022679	100.000000
1817.000000	11.182929	-0.024321	100.000000
1818.000000	11.185223	-0.009086	100.000000
1819.000000	11.187475	-0.032993	100.000000
1820.000000	11.189707	-0.003863	100.000000
1821.000000	11.191933	-0.025970	100.000000
1822.000000	11.194151	-0.019238	100.000000
1823.000000	11.196343	-0.020770	100.000000
1824.000000	11.198491	-0.026126	100.000000
1825.000000	11.200602	-0.000578	100.000000
1826.000000	11.202694	-0.007226	100.000000
1827.000000	11.204782	-0.005100	100.000000
1828.000000	11.206869	-0.020736	100.000000
1829.000000	11.208947	-0.018906	100.000000
1830.000000	11.211011	-0.022300	100.000000
1831.000000	11.213057	-0.013803	100.000000
1832.000000	11.215080	-0.008557	100.000000
1833.000000	11.217099	0.011961	100.000000
1834.000000	11.219148	0.013851	100.000000
1835.000000	11.221228	0.001842	100.000000
1836.000000	11.223316	-0.018749	100.000000
1837.000000	11.225404	-0.010054	100.000000
1838.000000	11.227504	-0.010114	100.000000
1839.000000	11.229645	0.001816	100.000000
1840.000000	11.231843	0.002084	100.000000
1841.000000	11.234080	-0.008019	100.000000
1842.000000	11.236337	-0.019767	100.000000
1843.000000	11.238596	-0.013044	100.000000
1844.000000	11.240861	-0.015206	100.000000
1845.000000	11.243163	0.000689	100.000000
1846.000000	11.245512	-0.004441	100.000000
1847.000000	11.247895	-0.012989	100.000000
1848.000000	11.250304	-0.028458	100.000000
1849.000000	11.252731	-0.007939	100.000000
1850.000000	11.255165	-0.011360	100.000000
1851.000000	11.257606	-0.028687	100.000000
1852.000000	11.260061	-0.005818	100.000000
1853.000000	11.262526	-0.024697	100.000000
1854.000000	11.264990	-0.016238	100.000000
1855.000000	11.267447	-0.029786	100.000000
1856.000000	11.269891	-0.021531	100.000000
1857.000000	11.272332	-0.016518	100.000000
1858.000000	11.274793	-0.016147	100.000000
1859.000000	11.277283	-0.016200	100.000000
1860.000000	11.279800	-0.022859	100.000000
1861.000000	11.282316	-0.031397	100.000000
1862.000000	11.284804	-0.019447	100.000000
1863.000000	11.287296	-0.038594	100.000000
1864.000000	11.289830	-0.014240	100.000000
1865.000000	11.292397	-0.026247	100.000000
1866.000000	11.294983	-0.031245	100.000000
1867.000000	11.297574	-0.036299	100.000000
1868.000000	11.300150	-0.022545	100.000000
1869.000000	11.302712	-0.010571	100.000000
1870.000000	11.305272	-0.015788	100.000000
1871.000000	11.307841	-0.041123	100.000000
1872.000000	11.310424	-0.034455	100.000000
1873.000000	11.313002	-0.037607	100.000000
1874.000000	11.315544	-0.041061	100.000000
1875.000000	11.318049	-0.020911	100.000000
1876.000000	11.320558	-0.037947	100.000000
1877.000000	11.323098	-0.013707	100.000000
1878.000000	11.325658	-0.027276	100.000000
1879.000000	11.328216	-0.023841	100.000000
1880.000000	11.330762	-0.024066	100.000000
1881.000000	11.333291	-0.027222	100.000000
1882.000000	11.335802	-0.027285	100.000000
1883.000000	11.338324	-0.020364	100.000000
1884.000000	11.340883	-0.025353	100.000000
1885.000000	11.343464	-0.025258	100.000000
1886.000000	11.346042	-0.045936	100.000000
1887.000000	11.348600	-0.039114	100.000000
1888.000000	11.351139	-0.044017	100.000000
1889.000000	11.353682	-0.022026	100.000000
1890.000000	11.356256	-0.025283	100.000000
1891.000000	11.358875	-0.023279	100.000000
1892.000000	11.361530	-0.021663	100.000000
1893.000000	11.364192	-0.036972	100.000000
1894.000000	11.366855	-0.035510	100.000000
1895.000000	11.369548	-0.038828	100.000000
1896.000000	11.372280	-0.047095	100.000000
1897.000000	11.375037	-0.029714	100.000000
1898.000000	11.377811	-0.038273	100.000000
1899.000000	11.380594	-0.046934	100.000000
1900.000000	11.383388	-0.053927	100.000000
1901.000000	11.386203	-0.053886	100.000000
1902.000000	11.389055	-0.046836	100.000000
1903.000000	11.391943	-0.044867	100.000000
1904.000000	11.394850	-0.053229	100.000000
1905.000000	11.397769	-0.048179	100.000000
1906.000000	11.400694	-0.039617	100.000000
1907.000000	11.403616	-0.065352	100.000000
1908.000000	11.406531	-0.053365	100.000000
1909.000000	11.409453	-0.058282	100.000000
1910.000000	11.412395	-0.059793	100.000000
1911.000000	11.415358	-0.071347	100.000000
1912.000000	11.418327	-0.054433	100.000000
1913.000000	11.421291	-0.075018	100.000000
1914.000000	11.424273	-0.047444	100.000000
1915.000000	11.427292	-0.049099	100.000000
1916.000000	11.430364	-0.054197	100.000000
1917.000000	11.433506	-0.043544	100.000000
1918.000000	11.436718	-0.050295	100.000000
1919.000000	11.439987	-0.055286	100.000000
1920.000000	11.443304	-0.045298	100.000000
1921.000000	11.446687	-0.046786	100.000000
1922.000000	11.450158	-0.046518	100.000000
1923.000000	11.453722	-0.041093	100.000000
1924.000000	11.457361	-0.039354	100.000000
1925.000000	11.461052	-0.054564	100.000000
1926.000000	11.464781	-0.058103	100.000000
1927.000000	11.468569	-0.032865	100.000000
1928.000000	11.472433	-0.042626	100.000000
1929.000000	11.476366	-0.035348	100.000000
1930.000000	11.480352	-0.069665	100.000000
1931.000000	11.484369	-0.044079	100.000000
1932.000000	11.488400	-0.057662	100.000000
1933.000000	11.492450	-0.037188	100.000000
1934.000000	11.496528	-0.033602	100.000000
1935.000000	11.500643	-0.047227	100.000000
1936.000000	11.504794	-0.040259	100.000000
1937.000000	11.508962	-0.052044	100.000000
1938.000000	11.513124	-0.038361	100.000000
1939.000000	11.517288	-0.033282	100.000000
1940.000000	11.521480	-0.041641	100.000000
1941.000000	11.525719	-0.029358	100.000000
1942.000000	11.530003	-0.044480	100.000000
1943.000000	11.534300	-0.044411	100.000000
1944.000000	11.538593	-0.046454	100.000000
1945.000000	11.542879	-0.049515	100.000000
1946.000000	11.547165	-0.051081	100.000000
1947.000000	11.551462	-0.064538	100.000000
1948.000000	11.555765	-0.057770	100.000000
1949.000000	11.560053	-0.062892	100.000000
1950.000000	11.564308	-0.054123	100.000000
1951.000000	11.568544	-0.057900	100.000000
1952.000000	11.572787	-0.042337	100.000000
1953.000000	11.577039	-0.064168	100.000000
1954.000000	11.581270	-0.062417	100.000000
1955.000000	11.585449	-0.064136	100.000000
1956.000000	11.589573	-0.055738	100.000000
1957.000000	11.593660	-0.055586	100.000000
1958.000000	11.597739	-0.058853	100.000000
1959.000000	11.601816	-0.053763	100.000000
1960.000000	11.605853	-0.062077	100.000000
1961.000000	11.609818	-0.051761	100.000000
1962.000000	11.613706	-0.058628	100.000000
1963.000000	11.617509	-0.060463	100.000000
1964.000000	11.621237	-0.041394	100.000000
1965.000000	11.624928	-0.047853	100.000000
1966.000000	11.628591	-0.059936	100.000000
1967.000000	11.632212	-0.063371	100.000000
1968.000000	11.635775	-0.066900	100.000000
1969.000000	11.639287	-0.051199	100.000000
1970.000000	11.642776	-0.037337	100.000000
1971.000000	11.646260	-0.056056	100.000000
1972.000000	11.649729	-0.037359	100.000000
1973.000000	11.653155	-0.052593	100.000000
1974.000000	11.656539	-0.033717	100.000000
1975.000000	11.659916	-0.032017	100.000000
1976.000000	11.663301	-0.038573	100.000000
1977.000000	11.666679	-0.034968	100.000000
1978.000000	11.670035	-0.039993	100.000000
1979.000000	11.673379	-0.043365	100.000000
1980.000000	11.676719	-0.031543	100.000000
1981.000000	11.680072	-0.026023	100.000000
1982.000000	11.683448	-0.032826	100.000000
1983.000000	11.686849	-0.020506	100.000000
1984.000000	11.690276	-0.012084	100.000000
1985.000000	11.693738	-0.030874	100.000000
1986.000000	11.697238	-0.017064	100.000000
1987.000000	11.700772	-0.020261	100.000000
1988.000000	11.704336	-0.009774	100.000000
1989.000000	11.707936	-0.011355	100.000000
1990.000000	11.711574	-0.028397	100.000000
1991.000000	11.715245	-0.019913	100.000000
1992.000000	11.718960	0.005948	100.000000
1993.000000	11.722733	-0.000866	100.000000
1994.000000	11.726555	-0.009161	100.000000
1995.000000	11.730398	0.006182	100.000000
1996.000000	11.734244	0.006145	100.000000
1997.000000	11.738096	0.001141	100.000000
1998.000000	11.741970	0.009803	100.000000
1999.000000	11.745885	0.016725	100.000000
2000.000000	11.749829	0.006574	100.000000
2001.000000	11.753775	0.010158	100.000000
2002.000000	11.757702	0.003136	100.000000
2003.000000	11.761600	0.001387	100.000000
2004.000000	11.765474	0.008518	100.000000
2005.000000	11.769335	0.018738	100.000000
2006.000000	11.773193	0.003558	100.000000
2007.000000	11.777037	0.012431	100.000000
2008.000000	11.780833	0.012351	100.000000
2009.000000	11.784572	0.024210	100.000000
2010.000000	11.788268	0.015943	100.000000
2011.000000	11.791930	0.029676	100.000000
2012.000000	11.795573	0.012341	100.000000
2013.000000	11.799210	0.035026	100.000000
2014.000000	11.802833	0.009387	100.000000
2015.000000	11.806413	0.014529	100.000000
2016.000000	11.809945	0.045042	100.000000
2017.000000	11.813449	0.042126	100.000000
2018.000000	11.816946	0.035406	100.000000
2019.000000	11.820443	0.035461	100.000000
2020.000000	11.823916	0.025456	100.000000
2021.000000	11.827336	0.037303	100.000000
2022.000000	11.830707	0.028649	100.000000
2023.000000	11.834052	0.052881	100.000000
2024.000000	11.837411	0.037414	100.000000
2025.000000	11.840804	0.049883	100.000000
2026.000000	11.844211	0.046245	100.000000
2027.000000	11.847604	0.044567	100.000000
2028.000000	11.850983	0.046207	100.000000
2029.000000	11.854379	0.051567	100.000000
2030.000000	11.857823	0.069021	100.000000
2031.000000	11.861311	0.055478	100.000000
2032.000000	11.864811	0.067329	100.000000
2033.000000	11.868300	0.055426	100.000000
2034.000000	11.871777	0.055423	100.000000
2035.000000	11.875260	0.062278	100.000000
2036.000000	11.878767	0.072796	100.000000
2037.000000	11.882310	0.081724	100.000000
2038.000000	11.885875	0.083435	100.000000
2039.000000	11.889444	0.066158	100.000000
2040.000000	11.893005	0.077851	100.000000
2041.000000	11.896559	0.069565	100.000000
2042.000000	11.900126	0.080060	100.000000
2043.000000	11.903710	0.076639	100.000000
2044.000000	11.907297	0.068395	100.000000
2045.000000	11.910866	0.082027	100.000000
2046.000000	11.914396	0.078738	100.000000
2047.000000	11.917896	0.088553	100.000000
2048.000000	11.921398	0.085578	100.000000
2049.000000	11.924915	0.099358	100.000000
2050.000000	11.928445	0.072086	100.000000
2051.000000	11.931982	0.096247	100.000000
2052.000000	11.935506	0.078894	100.000000
2053.000000	11.938992	0.096038	100.000000
2054.000000	11.942457	0.099563	100.000000
2055.000000	11.945934	0.115213	100.000000
2056.000000	11.949413	0.089671	100.000000
2057.000000	11.952865	0.082906	100.000000
2058.000000	11.956276	0.086128	100.000000
2059.000000	11.959650	0.089457	100.000000
2060.000000	11.962994	0.089811	100.000000
2061.000000	11.966314	0.120507	100.000000
2062.000000	11.969619	0.101678	100.000000
2063.000000	11.972904	0.106986	100.000000
2064.000000	11.976153	0.096886	100.000000
2065.000000	11.979345	0.095159	100.000000
2066.000000	11.982468	0.120755	100.000000
2067.000000	11.985552	0.124363	100.000000
2068.000000	11.988625	0.100508	100.000000
2069.000000	11.991666	0.109079	100.000000
2070.000000	11.994654	0.109110	100.000000
2071.000000	11.997585	0.112575	100.000000
2072.000000	12.000453	0.114297	100.000000
2073.000000	12.003268	0.120958	100.000000
2074.000000	12.006042	0.126130	100.000000
2075.000000	12.008778	0.119799	100.000000
2076.000000	12.011482	0.131594	100.000000
2077.000000	12.014125	0.105958	100.000000
2078.000000	12.016677	0.105760	100.000000
2079.000000	12.019150	0.100538	100.000000
2080.000000	12.021573	0.112555	100.000000
2081.000000	12.023959	0.106012	100.000000
2082.000000	12.026295	0.112983	100.000000
2083.000000	12.028545	0.116387	100.000000
2084.000000	12.030707	0.109460	100.000000
2085.000000	12.032799	0.119350	100.000000
2086.000000	12.034834	0.116232	100.000000
2087.000000	12.036821	0.118206	100.000000
2088.000000	12.038750	0.111453	100.000000
2089.000000	12.040597	0.099113	100.000000
2090.000000	12.042351	0.093935	100.000000
2091.000000	12.044037	0.101013	100.000000
2092.000000	12.045676	0.121598	100.000000
2093.000000	12.047280	0.104502	100.000000
2094.000000	12.048871	0.099517	100.000000
2095.000000	12.050448	0.104529	100.000000
2096.000000	12.051977	0.102842	100.000000
2097.000000	12.053447	0.095937	100.000000
2098.000000	12.054869	0.097628	100.000000
2099.000000	12.056255	0.120016	100.000000
2100.000000	12.057615	0.092346	100.000000
2101.000000	12.058960	0.109861	100.000000
2102.000000	12.060282	0.102961	100.000000
2103.000000	12.061561	0.091003	100.000000
2104.000000	12.062790	0.095893	100.000000
2105.000000	12.063989	0.092618	100.000000
2106.000000	12.065186	0.108143	100.000000
2107.000000	12.066380	0.102895	100.000000
2108.000000	12.067564	0.099468	100.000000
2109.000000	12.068725	0.087790	100.000000
2110.000000	12.069844	0.109970	100.000000
2111.000000	12.070922	0.120225	100.000000
2112.000000	12.071982	0.101486	100.000000
2113.000000	12.073042	0.108314	100.000000
2114.000000	12.074091	0.098087	100.000000
2115.000000	12.075089	0.098115	100.000000
2116.000000	12.076025	0.103018	100.000000
2117.000000	12.076927	0.094652	100.000000
2118.000000	12.077826	0.118935	100.000000
2119.000000	12.078721	0.101619	100.000000
2120.000000	12.079612	0.106780	100.000000
2121.000000	12.080519	0.091235	100.000000
2122.000000	12.081460	0.089514	100.000000
2123.000000	12.082442	0.115417	100.000000
2124.000000	12.083464	0.107054	100.000000
2125.000000	12.084540	0.105341	100.000000
2126.000000	12.085673	0.096636	100.000000
2127.000000	12.086836	0.093275	100.000000
2128.000000	12.088026	0.091323	100.000000
2129.000000	12.089278	0.110322	100.000000
2130.000000	12.090618	0.115646	100.000000
2131.000000	12.092041	0.106961	100.000000
2132.000000	12.093530	0.105717	100.000000
2133.000000	12.095071	0.114121	100.000000
2134.000000	12.096664	0.096842	100.000000
2135.000000	12.098305	0.112445	100.000000
2136.000000	12.100006	0.124389	100.000000
2137.000000	12.101792	0.121170	100.000000
2138.000000	12.103644	0.116043	100.000000
2139.000000	12.105525	0.097194	100.000000
2140.000000	12.107422	0.126126	100.000000
2141.000000	12.109348	0.112747	100.000000
2142.000000	12.111319	0.123156	100.000000
2143.000000	12.113320	0.118281	100.000000
2144.000000	12.115325	0.112797	100.000000
2145.000000	12.117319	0.104337	100.000000
2146.000000	12.119301	0.124670	100.000000
2147.000000	12.121298	0.143742	100.000000
2148.000000	12.123337	0.126789	100.000000
2149.000000	12.125407	0.123512	100.000000
2150.000000	12.127481	0.132062	100.000000
2151.000000	12.129536	0.127048	100.000000
2152.000000	12.131582	0.111150	100.000000
2153.000000	12.133652	0.126866	100.000000
2154.000000	12.135751	0.125500	100.000000
2155.000000	12.137861	0.137311	100.000000
2156.000000	12.139976	0.116937	100.000000
2157.000000	12.142075	0.136079	100.000000
2158.000000	12.144151	0.115097	100.000000
2159.000000	12.146229	0.120267	100.000000
2160.000000	12.148323	0.144658	100.000000
2161.000000	12.150430	0.132552	100.000000
2162.000000	12.152544	0.110328	100.000000
2163.000000	12.154638	0.122216	100.000000
2164.000000	12.156707	0.130763	100.000000
2165.000000	12.158740	0.139612	100.000000
2166.000000	12.160735	0.142534	100.000000
2167.000000	12.162722	0.101354	100.000000
2168.000000	12.164722	0.144723	100.000000
2169.000000	12.166719	0.144795	100.000000
2170.000000	12.168675	0.134322	100.000000
2171.000000	12.170570	0.151354	100.000000
2172.000000	12.172416	0.151588	100.000000
2173.000000	12.174230	0.156677	100.000000
2174.000000	12.176021	0.139785	100.000000
2175.000000	12.177780	0.137983	100.000000
2176.000000	12.179491	0.136645	100.000000
2177.000000	12.181131	0.120678	100.000000
2178.000000	12.182700	0.148186	100.000000
2179.000000	12.184228	0.132835	100.000000
2180.000000	12.185734	0.163867	100.000000
2181.000000	12.187234	0.157325	100.000000
2182.000000	12.188742	0.143356	100.000000
2183.000000	12.190233	0.146739	100.000000
2184.000000	12.191684	0.138420	100.000000
2185.000000	12.193095	0.165614	100.000000
2186.000000	12.194493	0.148542	100.000000
2187.000000	12.195909	0.150440	100.000000
2188.000000	12.197350	0.152433	100.000000
2189.000000	12.198797	0.136988	100.000000
2190.000000	12.200231	0.141933	100.000000
2191.000000	12.201656	0.167886	100.000000
2192.000000	12.203096	0.168026	100.000000
2193.000000	12.204560	0.154158	100.000000
2194.000000	12.206051	0.142309	100.000000
2195.000000	12.207574	0.138874	100.000000
2196.000000	12.209113	0.147585	100.000000
2197.000000	12.210662	0.159459	100.000000
2198.000000	12.212236	0.164629	100.000000
2199.000000	12.213846	0.151128	100.000000
2200.000000	12.215490	0.163363	100.000000
2201.000000	12.217167	0.161558	100.000000
2202.000000	12.218866	0.171918	100.000000
2203.000000	12.220580	0.164914	100.000000
2204.000000	12.222327	0.176913	100.000000
2205.000000	12.224111	0.166930	100.000000
2206.000000	12.225919	0.163681	100.000000
2207.000000	12.227742	0.155491	100.000000
2208.000000	12.229571	0.153225	100.000000
2209.000000	12.231406	0.165163	100.000000
2210.000000	12.233253	0.170666	100.000000
2211.000000	12.235116	0.184436	100.000000
2212.000000	12.237007	0.181217	100.000000
2213.000000	12.238914	0.153880	100.000000
2214.000000	12.240803	0.169421	100.000000
2215.000000	12.242642	0.167617	100.000000
2216.000000	12.244435	0.162243	100.000000
2217.000000	12.246211	0.184741	100.000000
2218.000000	12.247997	0.171315	100.000000
2219.000000	12.249807	0.190248	100.000000
2220.000000	12.251638	0.178118	100.000000
2221.000000	12.253462	0.178311	100.000000
2222.000000	12.255270	0.173253	100.000000
2223.000000	12.257072	0.195352	100.000000
2224.000000	12.258885	0.190294	100.000000
2225.000000	12.260716	0.202847	100.000000
2226.000000	12.262543	0.192521	100.000000
2227.000000	12.264352	0.194161	100.000000
2228.000000	12.266139	0.181772	100.000000
2229.000000	12.267902	0.187474	100.000000
2230.000000	12.269661	0.218416	100.000000
2231.000000	12.271423	0.199530	100.000000
2232.000000	12.273178	0.200979	100.000000
2233.000000	12.274926	0.196380	100.000000
2234.000000	12.276641	0.204799	100.000000
2235.000000	12.278308	0.214992	100.000000
2236.000000	12.279957	0.206520	100.000000
2237.000000	12.281606	0.210239	100.000000
2238.000000	12.283241	0.222282	100.000000
2239.000000	12.284845	0.218697	100.000000
2240.000000	12.286409	0.210174	100.000000
2241.000000	12.287930	0.205052	100.000000
2242.000000	12.289422	0.224036	100.000000
2243.000000	12.290902	0.212169	100.000000
2244.000000	12.292353	0.189999	100.000000
2245.000000	12.293740	0.200412	100.000000
2246.000000	12.295053	0.203623	100.000000
2247.000000	12.296303	0.203700	100.000000
2248.000000	12.297522	0.220887	100.000000
2249.000000	12.298734	0.219239	100.000000
2250.000000	12.299923	0.198796	100.000000
2251.000000	12.301069	0.217660	100.000000
2252.000000	12.302169	0.200681	100.000000
2253.000000	12.303225	0.209275	100.000000
2254.000000	12.304237	0.200408	100.000000
2255.000000	12.305216	0.221198	100.000000
2256.000000	12.306185	0.219436	100.000000
2257.000000	12.307143	0.202476	100.000000
2258.000000	12.308076	0.226541	100.000000
2259.000000	12.309000	0.207590	100.000000
2260.000000	12.309934	0.229832	100.000000
2261.000000	12.310867	0.216221	100.000000
2262.000000	12.311792	0.200902	100.000000
2263.000000	12.312705	0.209489	100.000000
2264.000000	12.313587	0.209723	100.000000
2265.000000	12.314420	0.221435	100.000000
2266.000000	12.315212	0.233399	100.000000
2267.000000	12.315984	0.216461	100.000000
2268.000000	12.316742	0.214960	100.000000
2269.000000	12.317475	0.245709	100.000000
2270.000000	12.318186	0.221963	100.000000
2271.000000	12.318876	0.216655	100.000000
2272.000000	12.319551	0.230385	100.000000
2273.000000	12.320230	0.225299	100.000000
2274.000000	12.320931	0.234027	100.000000
2275.000000	12.321675	0.222426	100.000000
2276.000000	12.322461	0.224116	100.000000
2277.000000	12.323260	0.241236	100.000000
2278.000000	12.324060	0.232688	100.000000
2279.000000	12.324877	0.249561	100.000000
2280.000000	12.325736	0.253330	100.000000
2281.000000	12.326649	0.248224	100.000000
2282.000000	12.327606	0.231485	100.000000
2283.000000	12.328603	0.239589	100.000000
2284.000000	12.329654	0.232910	100.000000
2285.000000	12.330752	0.241290	100.000000
2286.000000	12.331884	0.243391	100.000000
2287.000000	12.333049	0.265753	100.000000
2288.000000	12.334237	0.254076	100.000000
2289.000000	12.335423	0.241879	100.000000
2290.000000	12.336620	0.251898	100.000000
2291.000000	12.337860	0.255470	100.000000
2292.000000	12.339132	0.248766	100.000000
2293.000000	12.340416	0.254101	100.000000
2294.000000	12.341712	0.259217	100.000000
2295.000000	12.343010	0.254170	100.000000
2296.000000	12.344295	0.262450	100.000000
2297.000000	12.345572	0.271144	100.000000
2298.000000	12.346860	0.260972	100.000000
2299.000000	12.348164	0.256045	100.000000
2300.000000	12.349465	0.268154	100.000000
2301.000000	12.350731	0.261296	100.000000
2302.000000	12.351939	0.278195	100.000000
2303.000000	12.353099	0.259417	100.000000
2304.000000	12.354226	0.269746	100.000000
2305.000000	12.355322	0.266397	100.000000
2306.000000	12.356387	0.273341	100.000000
2307.000000	12.357410	0.275071	100.000000
2308.000000	12.358368	0.271645	100.000000
2309.000000	12.359254	0.273015	100.000000
2310.000000	12.360085	0.262980	100.000000
2311.000000	12.360873	0.281970	100.000000
2312.000000	12.361631	0.269852	100.000000
2313.000000	12.362345	0.266530	100.000000
2314.000000	12.362981	0.281283	100.000000
2315.000000	12.363522	0.280141	100.000000
2316.000000	12.363980	0.281760	100.000000
2317.000000	12.364387	0.270000	100.000000
2318.000000	12.364769	0.285469	100.000000
2319.000000	12.365106	0.259709	100.000000
2320.000000	12.365356	0.271763	100.000000
2321.000000	12.365494	0.262849	100.000000
2322.000000	12.365543	0.271621	100.000000
2323.000000	12.365531	0.297402	100.000000
2324.000000	12.365463	0.297305	100.000000
2325.000000	12.365342	0.280253	100.000000
2326.000000	12.365167	0.276846	100.000000
2327.000000	12.364933	0.285217	100.000000
2328.000000	12.364642	0.285010	100.000000
2329.000000	12.364302	0.297204	100.000000
2330.000000	12.363927	0.297369	100.000000
2331.000000	12.363517	0.287136	100.000000
2332.000000	12.363061	0.295667	100.000000
2333.000000	12.362551	0.297331	100.000000
2334.000000	12.361990	0.300502	100.000000
2335.000000	12.361403	0.293668	100.000000
2336.000000	12.360813	0.299044	100.000000
2337.000000	12.360221	0.300752	100.000000
2338.000000	12.359620	0.295283	100.000000
2339.000000	12.359001	0.300620	100.000000
2340.000000	12.358359	0.291995	100.000000
2341.000000	12.357696	0.312578	100.000000
2342.000000	12.357027	0.305726	100.000000
2343.000000	12.356376	0.300555	100.000000
2344.000000	12.355759	0.312795	100.000000
2345.000000	12.355177	0.305864	100.000000
2346.000000	12.354611	0.298803	100.000000
2347.000000	12.354049	0.295244	100.000000
2348.000000	12.353498	0.314754	100.000000
2349.000000	12.352960	0.316295	100.000000
2350.000000	12.352423	0.312776	100.000000
2351.000000	12.351883	0.290373	100.000000
2352.000000	12.351335	0.288478	100.000000
2353.000000	12.350772	0.286815	100.000000
2354.000000	12.350208	0.305446	100.000000
2355.000000	12.349658	0.300670	100.000000
2356.000000	12.349111	0.312556	100.000000
2357.000000	12.348560	0.307586	100.000000
2358.000000	12.347986	0.298903	100.000000
2359.000000	12.347385	0.291792	100.000000
2360.000000	12.346766	0.285012	100.000000
2361.000000	12.346126	0.286895	100.000000
2362.000000	12.345474	0.286718	100.000000
2363.000000	12.344814	0.286868	100.000000
2364.000000	12.344132	0.300533	100.000000
2365.000000	12.343436	0.290014	100.000000
2366.000000	12.342742	0.293483	100.000000
2367.000000	12.342063	0.288449	100.000000
2368.000000	12.341424	0.310935	100.000000
2369.000000	12.340831	0.300984	100.000000
2370.000000	12.340258	0.288457	100.000000
2371.000000	12.339688	0.286585	100.000000
2372.000000	12.339123	0.293467	100.000000
2373.000000	12.338567	0.300541	100.000000
2374.000000	12.338014	0.298644	100.000000
2375.000000	12.337451	0.286822	100.000000
2376.000000	12.336874	0.286793	100.000000
2377.000000	12.336281	0.286683	100.000000
2378.000000	12.335672	0.289960	100.000000
2379.000000	12.335063	0.286699	100.000000
2380.000000	12.334466	0.300534	100.000000
2381.000000	12.333860	0.288525	100.000000
2382.000000	12.333221	0.291862	100.000000
2383.000000	12.332544	0.301987	100.000000
2384.000000	12.331837	0.284755	100.000000
2385.000000	12.331118	0.307169	100.000000
2386.000000	12.330409	0.284959	100.000000
2387.000000	12.329700	0.295423	100.000000
2388.000000	12.328975	0.290471	100.000000
2389.000000	12.328219	0.278229	100.000000
2390.000000	12.327430	0.291711	100.000000
2391.000000	12.326630	0.278302	100.000000
2392.000000	12.325841	0.292057	100.000000
2393.000000	12.325069	0.281879	100.000000
2394.000000	12.324312	0.278439	100.000000
2395.000000	12.323554	0.285181	100.000000
2396.000000	12.322791	0.286889	100.000000
2397.000000	12.322031	0.295374	100.000000
2398.000000	12.321274	0.283632	100.000000
2399.000000	12.320514	0.286861	100.000000
2400.000000	12.319745	0.278323	100.000000
2401.000000	12.318957	0.290171	100.000000
2402.000000	12.318150	0.271439	100.000000
2403.000000	12.317337	0.288467	100.000000
2404.000000	12.316528	0.286837	100.000000
2405.000000	12.315697	0.278362	100.000000
2406.000000	12.314813	0.274820	100.000000
2407.000000	12.313882	0.286461	100.000000
2408.000000	12.312924	0.281653	100.000000
2409.000000	12.311949	0.307247	100.000000
2410.000000	12.310949	0.285153	100.000000
2411.000000	12.309907	0.283340	100.000000
2412.000000	12.308809	0.288302	100.000000
2413.000000	12.307658	0.288406	100.000000
2414.000000	12.306478	0.302165	100.000000
2415.000000	12.305278	0.276435	100.000000
2416.000000	12.304047	0.273004	100.000000
2417.000000	12.302766	0.278031	100.000000
2418.000000	12.301434	0.272817	100.000000
2419.000000	12.300058	0.295176	100.000000
2420.000000	12.298658	0.271050	100.000000
2421.000000	12.297257	0.290374	100.000000
2422.000000	12.295836	0.269536	100.000000
2423.000000	12.294360	0.281449	100.000000
2424.000000	12.292833	0.270773	100.000000
2425.000000	12.291277	0.278028	100.000000
2426.000000	12.289704	0.272824	100.000000
2427.000000	12.288106	0.267801	100.000000
2428.000000	12.286472	0.276239	100.000000
2429.000000	12.284782	0.252399	100.000000
2430.000000	12.283031	0.279379	100.000000
2431.000000	12.281246	0.270741	100.000000
2432.000000	12.279446	0.282928	100.000000
2433.000000	12.277646	0.265731	100.000000
2434.000000	12.275845	0.269281	100.000000
2435.000000	12.274018	0.272397	100.000000
2436.000000	12.272146	0.265433	100.000000
2437.000000	12.270233	0.257088	100.000000
2438.000000	12.268301	0.274096	100.000000
2439.000000	12.266375	0.274020	100.000000
2440.000000	12.264452	0.239812	100.000000
2441.000000	12.262509	0.255230	100.000000
2442.000000	12.260539	0.260557	100.000000
2443.000000	12.258540	0.249801	100.000000
2444.000000	12.256526	0.272342	100.000000
2445.000000	12.254519	0.246525	100.000000
2446.000000	12.252534	0.260330	100.000000
2447.000000	12.250580	0.280843	100.000000
2448.000000	12.248645	0.265338	100.000000
2449.000000	12.246714	0.258329	100.000000
2450.000000	12.244775	0.244569	100.000000
2451.000000	12.242825	0.246309	100.000000
2452.000000	12.240874	0.255091	100.000000
2453.000000	12.238954	0.249661	100.000000
2454.000000	12.237095	0.261878	100.000000
2455.000000	12.235280	0.237739	100.000000
2456.000000	12.233482	0.258465	100.000000
2457.000000	12.231713	0.249716	100.000000
2458.000000	12.229999	0.236012	100.000000
2459.000000	12.228359	0.253292	100.000000
2460.000000	12.226786	0.227784	100.000000
2461.000000	12.225243	0.222346	100.000000
2462.000000	12.223718	0.241226	100.000000
2463.000000	12.222242	0.250018	100.000000
2464.000000	12.220847	0.256866	100.000000
2465.000000	12.219541	0.267093	100.000000
2466.000000	12.218317	0.217739	100.000000
2467.000000	12.217159	0.221134	100.000000
2468.000000	12.216054	0.215935	100.000000
2469.000000	12.214996	0.246508	100.000000
2470.000000	12.213997	0.217576	100.000000
2471.000000	12.213078	0.231441	100.000000
2472.000000	12.212234	0.224412	100.000000
2473.000000	12.211452	0.231522	100.000000
2474.000000	12.210736	0.241496	100.000000
2475.000000	12.210090	0.234592	100.000000
2476.000000	12.209503	0.231173	100.000000
2477.000000	12.208963	0.234760	100.000000
2478.000000	12.208463	0.237919	100.000000
2479.000000	12.207991	0.214297	100.000000
2480.000000	12.207537	0.226032	100.000000
2481.000000	12.207096	0.229420	100.000000
2482.000000	12.206669	0.244836	100.000000
2483.000000	12.206252	0.228028	100.000000
2484.000000	12.205839	0.226339	100.000000
2485.000000	12.205415	0.231337	100.000000
2486.000000	12.204969	0.222650	100.000000
2487.000000	12.204501	0.241970	100.000000
2488.000000	12.204029	0.245015	100.000000
2489.000000	12.203574	0.238107	100.000000
2490.000000	12.203142	0.212476	100.000000
2491.000000	12.202701	0.231414	100.000000
2492.000000	12.202230	0.217742	100.000000
2493.000000	12.201746	0.232735	100.000000
2494.000000	12.201279	0.215865	100.000000
2495.000000	12.200834	0.236748	100.000000
2496.000000	12.200388	0.209179	100.000000
2497.000000	12.199914	0.236627	100.000000
2498.000000	12.199410	0.202030	100.000000
2499.000000	12.198891	0.210775	100.000000
2500.000000	12.198373	0.219452	100.000000
2501.000000	12.197865	0.227873	100.000000
2502.000000	12.197362	0.215840	100.000000
2503.000000	12.196846	0.214106	100.000000
2504.000000	12.196304	0.193446	100.000000
2505.000000	12.195749	0.205348	100.000000
2506.000000	12.195201	0.207289	100.000000
2507.000000	12.194662	0.228024	100.000000
2508.000000	12.194115	0.186942	100.000000
2509.000000	12.193547	0.195362	100.000000
2510.000000	12.192958	0.203890	100.000000
2511.000000	12.192353	0.200519	100.000000
2512.000000	12.191733	0.202214	100.000000
2513.000000	12.191111	0.205521	100.000000
2514.000000	12.190524	0.219378	100.000000
2515.000000	12.189977	0.185269	100.000000
2516.000000	12.189428	0.202437	100.000000
2517.000000	12.188844	0.181663	100.000000
2518.000000	12.188235	0.190450	100.000000
2519.000000	12.187623	0.198978	100.000000
2520.000000	12.187016	0.197192	100.000000
2521.000000	12.186402	0.181893	100.000000
2522.000000	12.185756	0.183499	100.000000
2523.000000	12.185069	0.173107	100.000000
2524.000000	12.184353	0.193622	100.000000
2525.000000	12.183623	0.191997	100.000000
2526.000000	12.182884	0.171592	100.000000
2527.000000	12.182125	0.200623	100.000000
2528.000000	12.181325	0.183499	100.000000
2529.000000	12.180479	0.173017	100.000000
2530.000000	12.179604	0.195404	100.000000
2531.000000	12.178720	0.182128	100.000000
2532.000000	12.177816	0.176731	100.000000
2533.000000	12.176856	0.168127	100.000000
2534.000000	12.175824	0.175739	100.000000
2535.000000	12.174734	0.178440	100.000000
2536.000000	12.173615	0.178434	100.000000
2537.000000	12.172472	0.176666	100.000000
2538.000000	12.171288	0.180178	100.000000
2539.000000	12.170052	0.178449	100.000000
2540.000000	12.168768	0.166250	100.000000
2541.000000	12.167462	0.169442	100.000000
2542.000000	12.166153	0.166393	100.000000
2543.000000	12.164838	0.182111	100.000000
2544.000000	12.163505	0.175062	100.000000
2545.000000	12.162139	0.168025	100.000000
2546.000000	12.160731	0.150841	100.000000
2547.000000	12.159282	0.156184	100.000000
2548.000000	12.157798	0.157559	100.000000
2549.000000	12.156278	0.157760	100.000000
2550.000000	12.154724	0.169902	100.000000
2551.000000	12.153143	0.140796	100.000000
2552.000000	12.151532	0.169779	100.000000
2553.000000	12.149890	0.164631	100.000000
2554.000000	12.148244	0.166333	100.000000
2555.000000	12.146619	0.156339	100.000000
2556.000000	12.145013	0.149398	100.000000
2557.000000	12.143404	0.154526	100.000000
2558.000000	12.141782	0.149100	100.000000
2559.000000	12.140168	0.154492	100.000000
2560.000000	12.138576	0.162911	100.000000
2561.000000	12.136994	0.149493	100.000000
2562.000000	12.135404	0.161591	100.000000
2563.000000	12.133789	0.139011	100.000000
2564.000000	12.132151	0.140897	100.000000
2565.000000	12.130514	0.149378	100.000000
2566.000000	12.128897	0.154448	100.000000
2567.000000	12.127291	0.156497	100.000000
2568.000000	12.125674	0.136051	100.000000
2569.000000	12.124036	0.133881	100.000000
2570.000000	12.122389	0.125345	100.000000
2571.000000	12.120756	0.139236	100.000000
2572.000000	12.119156	0.149421	100.000000
2573.000000	12.117578	0.135811	100.000000
2574.000000	12.115989	0.130732	100.000000
2575.000000	12.114380	0.128925	100.000000
2576.000000	12.112754	0.128955	100.000000
2577.000000	12.111100	0.137472	100.000000
2578.000000	12.109416	0.130629	100.000000
2579.000000	12.107714	0.137651	100.000000
2580.000000	12.105989	0.122143	100.000000
2581.000000	12.104229	0.111914	100.000000
2582.000000	12.102429	0.137322	100.000000
2583.000000	12.100598	0.132493	100.000000
2584.000000	12.098739	0.125672	100.000000
2585.000000	12.096846	0.115437	100.000000
2586.000000	12.094914	0.094770	100.000000
2587.000000	12.092944	0.113540	100.000000
2588.000000	12.090933	0.110189	100.000000
2589.000000	12.088892	0.116994	100.000000
2590.000000	12.086821	0.101437	100.000000
2591.000000	12.084709	0.075737	100.000000
2592.000000	12.082548	0.106968	100.000000
2593.000000	12.080326	0.085965	100.000000
2594.000000	12.078031	0.103006	100.000000
2595.000000	12.075675	0.091229	100.000000
2596.000000	12.073287	0.097955	100.000000
2597.000000	12.070861	0.084317	100.000000
2598.000000	12.068368	0.091278	100.000000
2599.000000	12.065803	0.077101	100.000000
2600.000000	12.063175	0.092509	100.000000
2601.000000	12.060493	0.084176	100.000000
2602.000000	12.057763	0.078977	100.000000
2603.000000	12.054979	0.082532	100.000000
2604.000000	12.052140	0.070388	100.000000
2605.000000	12.049235	0.068554	100.000000
2606.000000	12.046255	0.076950	100.000000
2607.000000	12.043216	0.072051	100.000000
2608.000000	12.040129	0.072030	100.000000
2609.000000	12.036980	0.080627	100.000000
2610.000000	12.033737	0.058267	100.000000
2611.000000	12.030370	0.064889	100.000000
2612.000000	12.026887	0.087341	100.000000
2613.000000	12.023317	0.071347	100.000000
2614.000000	12.019681	0.071653	100.000000
2615.000000	12.015997	0.066657	100.000000
2616.000000	12.012262	0.063468	100.000000
2617.000000	12.008462	0.069741	100.000000
2618.000000	12.004583	0.062555	100.000000
2619.000000	12.000630	0.057683	100.000000
2620.000000	11.996615	0.061265	100.000000
2621.000000	11.992544	0.055911	100.000000
2622.000000	11.988396	0.045526	100.000000
2623.000000	11.984159	0.043621	100.000000
2624.000000	11.979842	0.048841	100.000000
2625.000000	11.975456	0.052231	100.000000
2626.000000	11.971004	0.043529	100.000000
2627.000000	11.966480	0.048519	100.000000
2628.000000	11.961879	0.056966	100.000000
2629.000000	11.957208	0.029748	100.000000
2630.000000	11.952461	0.046452	100.000000
2631.000000	11.947637	0.039727	100.000000
2632.000000	11.942743	0.044775	100.000000
2633.000000	11.937770	0.046662	100.000000
2634.000000	11.932681	0.017204	100.000000
2635.000000	11.927464	0.016884	100.000000
2636.000000	11.922138	0.034007	100.000000
2637.000000	11.916728	0.033797	100.000000
2638.000000	11.911255	0.031951	100.000000
2639.000000	11.905711	0.001420	100.000000
2640.000000	11.900065	0.001216	100.000000
2641.000000	11.894293	-0.000550	100.000000
2642.000000	11.888400	0.026214	100.000000
2643.000000	11.882411	0.007574	100.000000
2644.000000	11.876339	0.009270	100.000000
2645.000000	11.870170	-0.002668	100.000000
2646.000000	11.863870	-0.008110	100.000000
2647.000000	11.857428	-0.010062	100.000000
2648.000000	11.850864	-0.006762	100.000000
2649.000000	11.844196	-0.010180	100.000000
2650.000000	11.837439	-0.017274	100.000000
2651.000000	11.830603	0.010427	100.000000
2652.000000	11.823670	-0.010524	100.000000
2653.000000	11.816620	-0.005553	100.000000
2654.000000	11.809454	-0.011037	100.000000
2655.000000	11.802200	-0.027822	100.000000
2656.000000	11.794877	-0.024713	100.000000
2657.000000	11.787472	-0.012526	100.000000
2658.000000	11.779978	-0.031621	100.000000
2659.000000	11.772396	-0.028149	100.000000
2660.000000	11.764719	-0.021514	100.000000
2661.000000	11.756944	-0.030526	100.000000
2662.000000	11.749106	-0.018582	100.000000
2663.000000	11.741236	-0.027026	100.000000
2664.000000	11.733317	-0.035611	100.000000
2665.000000	11.725333	-0.037582	100.000000
2666.000000	11.717287	-0.053043	100.000000
2667.000000	11.709191	-0.032694	100.000000
2668.000000	11.701062	-0.031123	100.000000
2669.000000	11.692909	-0.036293	100.000000
2670.000000	11.684748	-0.041467	100.000000
2671.000000	11.676582	-0.051620	100.000000
2672.000000	11.668384	-0.040083	100.000000
2673.000000	11.660145	-0.039959	100.000000
2674.000000	11.651887	-0.054063	100.000000
2675.000000	11.643635	-0.040171	100.000000
2676.000000	11.635397	-0.062702	100.000000
2677.000000	11.627158	-0.073077	100.000000
2678.000000	11.618895	-0.069817	100.000000
2679.000000	11.610607	-0.059557	100.000000
2680.000000	11.602315	-0.059596	100.000000
2681.000000	11.594029	-0.082057	100.000000
2682.000000	11.585745	-0.073433	100.000000
2683.000000	11.577459	-0.070126	100.000000
2684.000000	11.569161	-0.087180	100.000000
2685.000000	11.560845	-0.077162	100.000000
2686.000000	11.552530	-0.065463	100.000000
2687.000000	11.544245	-0.089196	100.000000
2688.000000	11.535992	-0.080490	100.000000
2689.000000	11.527763	-0.089288	100.000000
2690.000000	11.519567	-0.113557	100.000000
2691.000000	11.511410	-0.098031	100.000000
2692.000000	11.503296	-0.098102	100.000000
2693.000000	11.495229	-0.094782	100.000000
2694.000000	11.487221	-0.094675	100.000000
2695.000000	11.479289	-0.093095	100.000000
2696.000000	11.471430	-0.094755	100.000000
2697.000000	11.463648	-0.094963	100.000000
2698.000000	11.455962	-0.098575	100.000000
2699.000000	11.448384	-0.094966	100.000000
2700.000000	11.440893	-0.105183	100.000000
2701.000000	11.433471	-0.100204	100.000000
2702.000000	11.426135	-0.098623	100.000000
2703.000000	11.418896	-0.110816	100.000000
2704.000000	11.411771	-0.093400	100.000000
2705.000000	11.404786	-0.086747	100.000000
2706.000000	11.397935	-0.088268	100.000000
2707.000000	11.391189	-0.113907	100.000000
2708.000000	11.384536	-0.107366	100.000000
2709.000000	11.377973	-0.105758	100.000000
2710.000000	11.371504	-0.110997	100.000000
2711.000000	11.365140	-0.064771	100.000000
2712.000000	11.358879	-0.112494	100.000000
2713.000000	11.352697	-0.116007	100.000000
2714.000000	11.346568	-0.131559	100.000000
2715.000000	11.340492	-0.133523	100.000000
2716.000000	11.334489	-0.119828	100.000000
2717.000000	11.328583	-0.123111	100.000000
2718.000000	11.322775	-0.129889	100.000000
2719.000000	11.317062	-0.145484	100.000000
2720.000000	11.311425	-0.134990	100.000000
2721.000000	11.305843	-0.154490	100.000000
2722.000000	11.300336	-0.137180	100.000000
2723.000000	11.294932	-0.125150	100.000000
2724.000000	11.289637	-0.140403	100.000000
2725.000000	11.284427	-0.159141	100.000000
2726.000000	11.279268	-0.144027	100.000000
2727.000000	11.274144	-0.159235	100.000000
2728.000000	11.269065	-0.161352	100.000000
2729.000000	11.264050	-0.152491	100.000000
2730.000000	11.259107	-0.164552	100.000000
2731.000000	11.254215	-0.162803	100.000000
2732.000000	11.249339	-0.164821	100.000000
2733.000000	11.244469	-0.166472	100.000000
2734.000000	11.239621	-0.187307	100.000000
2735.000000	11.234813	-0.153069	100.000000
2736.000000	11.230052	-0.176701	100.000000
2737.000000	11.225334	-0.180128	100.000000
2738.000000	11.220648	-0.166386	100.000000
2739.000000	11.215993	-0.180347	100.000000
2740.000000	11.211380	-0.188953	100.000000
2741.000000	11.206837	-0.183728	100.000000
2742.000000	11.202383	-0.176674	100.000000
2743.000000	11.198009	-0.169758	100.000000
2744.000000	11.193724	-0.171377	100.000000
2745.000000	11.189539	-0.180015	100.000000
2746.000000	11.185436	-0.200878	100.000000
2747.000000	11.181402	-0.176690	100.000000
2748.000000	11.177441	-0.185108	100.000000
2749.000000	11.173577	-0.181672	100.000000
2750.000000	11.169835	-0.169693	100.000000
2751.000000	11.166216	-0.184979	100.000000
2752.000000	11.162711	-0.198789	100.000000
2753.000000	11.159308	-0.179702	100.000000
2754.000000	11.156013	-0.172984	100.000000
2755.000000	11.152845	-0.193345	100.000000
2756.000000	11.149813	-0.174405	100.000000
2757.000000	11.146900	-0.205284	100.000000
2758.000000	11.144083	-0.200242	100.000000
2759.000000	11.141353	-0.183280	100.000000
2760.000000	11.138715	-0.193398	100.000000
2761.000000	11.136173	-0.185031	100.000000
2762.000000	11.133740	-0.191844	100.000000
2763.000000	11.131411	-0.188181	100.000000
2764.000000	11.129159	-0.196748	100.000000
2765.000000	11.126967	-0.215622	100.000000
2766.000000	11.124842	-0.202277	100.000000
2767.000000	11.122806	-0.208878	100.000000
2768.000000	11.120865	-0.207027	100.000000
2769.000000	11.119010	-0.207142	100.000000
2770.000000	11.117236	-0.207302	100.000000
2771.000000	11.115542	-0.203709	100.000000
2772.000000	11.113928	-0.200046	100.000000
2773.000000	11.112393	-0.195117	100.000000
2774.000000	11.110921	-0.212086	100.000000
2775.000000	11.109495	-0.210401	100.000000
2776.000000	11.108095	-0.232798	100.000000
2777.000000	11.106713	-0.215738	100.000000
2778.000000	11.105375	-0.210776	100.000000
2779.000000	11.104102	-0.229346	100.000000
2780.000000	11.102897	-0.208641	100.000000
2781.000000	11.101762	-0.222599	100.000000
2782.000000	11.100687	-0.230808	100.000000
2783.000000	11.099646	-0.224039	100.000000
2784.000000	11.098620	-0.236212	100.000000
2785.000000	11.097623	-0.232826	100.000000
2786.000000	11.096674	-0.225928	100.000000
2787.000000	11.095775	-0.224027	100.000000
2788.000000	11.094927	-0.241233	100.000000
2789.000000	11.094120	-0.227406	100.000000
2790.000000	11.093332	-0.246266	100.000000
2791.000000	11.092561	-0.236044	100.000000
2792.000000	11.091824	-0.236237	100.000000
2793.000000	11.091138	-0.225819	100.000000
2794.000000	11.090511	-0.223646	100.000000
2795.000000	11.089935	-0.224021	100.000000
2796.000000	11.089391	-0.247825	100.000000
2797.000000	11.088859	-0.237813	100.000000
2798.000000	11.088343	-0.234124	100.000000
2799.000000	11.087866	-0.241024	100.000000
2800.000000	11.087429	-0.227345	100.000000
2801.000000	11.087020	-0.237378	100.000000
2802.000000	11.086620	-0.244251	100.000000
2803.000000	11.086202	-0.236096	100.000000
2804.000000	11.085764	-0.236175	100.000000
2805.000000	11.085320	-0.230672	100.000000
2806.000000	11.084892	-0.230740	100.000000
2807.000000	11.084486	-0.225542	100.000000
2808.000000	11.084081	-0.227234	100.000000
