0.000000	12.807036	0.008612	0.991885
1.000000	12.710102	0.015666	0.991885
2.000000	12.524008	0.000287	0.991885
3.000000	12.261140	-0.008543	0.991885
4.000000	11.932957	0.004901	0.991885
5.000000	11.550003	0.022164	0.991885
6.000000	11.121985	0.003592	0.991885
7.000000	10.657811	-0.008290	0.991885
8.000000	10.165601	0.003577	0.991885
9.000000	9.652694	-0.001739	0.991885
10.000000	9.125689	0.010279	0.991885
11.000000	8.590494	0.008728	0.991885
12.000000	8.052375	-0.005303	0.991885
13.000000	7.515973	0.020564	0.991885
14.000000	6.985322	0.013579	0.991885
15.000000	6.463934	0.002103	0.991885
16.000000	5.954845	-0.001582	0.991885
17.000000	5.460612	0.023848	0.991885
18.000000	4.983329	0.013856	0.991885
19.000000	4.524702	0.019089	0.991885
20.000000	4.086107	0.006704	0.991885
21.000000	3.668613	0.010330	0.991885
22.000000	3.272970	0.001535	0.991885
23.000000	2.899632	0.013899	0.991885
24.000000	2.548837	8.401770E-5	0.991885
25.000000	2.220632	0.010054	0.991885
26.000000	1.914867	0.003318	0.991885
27.000000	1.631220	0.011966	0.991885
28.000000	1.369245	0.003739	0.991885
29.000000	1.128394	0.012246	0.991885
30.000000	0.908013	0.013723	0.991885
31.000000	0.707336	0.005072	0.991885
32.000000	0.525539	0.003469	0.991885
33.000000	0.361782	0.010214	0.991885
34.000000	0.215175	0.008811	0.991885
35.000000	0.084757	0.010276	0.991885
36.000000	-0.030417	0.010602	0.991885
37.000000	-0.131255	0.007090	0.991885
38.000000	-0.218697	0.010215	0.991885
39.000000	-0.293711	0.010331	0.991885
40.000000	-0.357232	-0.004836	0.991885
41.000000	-0.410140	0.005171	0.991885
42.000000	-0.453286	-0.010074	0.991885
43.000000	-0.487529	0.005317	0.991885
44.000000	-0.513695	-0.006798	0.991885
45.000000	-0.532552	0.003366	0.991885
46.000000	-0.544831	-0.006878	0.991885
47.000000	-0.551251	0.005209	0.991885
48.000000	-0.552496	0.008891	0.991885
49.000000	-0.549184	0.000176	0.991885
50.000000	-0.541869	-0.001518	0.991885
51.000000	-0.531078	0.012002	0.991885
52.000000	-0.517337	-0.011997	0.991885
53.000000	-0.501139	0.003657	0.991885
54.000000	-0.482904	-0.001739	0.991885
55.000000	-0.463011	0.013903	0.991885
56.000000	-0.441820	0.012018	0.991885
57.000000	-0.419672	0.005328	0.991885
58.000000	-0.396858	6.902713E-5	0.991885
59.000000	-0.373634	-0.004996	0.991885
60.000000	-0.350248	-0.010088	0.991885
61.000000	-0.326920	0.000196	0.991885
62.000000	-0.303827	0.012241	0.991885
63.000000	-0.281118	-0.007148	0.991885
64.000000	-0.258936	0.006893	0.991885
65.000000	-0.237397	0.015439	0.991885
66.000000	-0.216591	0.008633	0.991885
67.000000	-0.196583	0.005495	0.991885
68.000000	-0.177422	0.003573	0.991885
69.000000	-0.159166	0.003537	0.991885
70.000000	-0.141850	0.003728	0.991885
71.000000	-0.125479	0.001864	0.991885
72.000000	-0.110061	-0.008509	0.991885
73.000000	-0.095608	0.010499	0.991885
74.000000	-0.082131	-0.001477	0.991885
75.000000	-0.069620	-0.008072	0.991885
76.000000	-0.058042	-0.005048	0.991885
77.000000	-0.047373	0.010294	0.991885
78.000000	-0.037608	0.018881	0.991885
79.000000	-0.028729	0.005382	0.991885
80.000000	-0.020692	-0.008365	0.991885
81.000000	-0.013438	0.003576	0.991885
82.000000	-0.006930	0.012292	0.991885
83.000000	-0.001142	0.013951	0.991885
84.000000	0.003979	8.600447E-5	0.991885
85.000000	0.008483	-0.015580	0.991885
86.000000	0.012389	0.003649	0.991885
87.000000	0.015726	-0.004676	0.991885
88.000000	0.018553	-0.001455	0.991885
89.000000	0.020938	-0.008440	0.991885
90.000000	0.022925	-0.011835	0.991885
91.000000	0.024521	0.010541	0.991885
92.000000	0.025741	4.880530E-5	0.991885
93.000000	0.026626	0.008463	0.991885
94.000000	0.027200	0.006856	0.991885
95.000000	0.027489	0.010308	0.991885
96.000000	0.027547	-0.015317	0.991885
97.000000	0.027420	-0.004930	0.991885
98.000000	0.027131	0.017264	0.991885
99.000000	0.026690	0.013796	0.991885
100.000000	0.026118	0.001955	0.991885
101.000000	0.025443	0.006659	0.991885
102.000000	0.024671	0.000115	0.991885
103.000000	0.023793	0.001863	0.991885
104.000000	0.022833	0.008695	0.991885
105.000000	0.021840	-0.001612	0.991885
106.000000	0.020843	0.015127	0.991885
107.000000	0.019830	0.012104	0.991885
108.000000	0.018801	0.003599	0.991885
109.000000	0.017784	0.001795	0.991885
110.000000	0.016790	-0.003366	0.991885
111.000000	0.015804	0.013655	0.991885
112.000000	0.014829	-0.004912	0.991885
113.000000	0.013903	0.008491	0.991885
114.000000	0.013039	0.001381	0.991885
115.000000	0.012213	-0.000314	0.991885
116.000000	0.011422	0.007004	0.991885
117.000000	0.010686	-0.003426	0.991885
118.000000	0.010008	0.008631	0.991885
119.000000	0.009367	0.006709	0.991885
120.000000	0.008764	0.006946	0.991885
121.000000	0.008219	0.012032	0.991885
122.000000	0.007730	0.013408	0.991885
123.000000	0.007276	0.010304	0.991885
124.000000	0.006847	0.006532	0.991885
125.000000	0.006452	0.003401	0.991885
126.000000	0.006099	0.022094	0.991885
127.000000	0.005780	0.017139	0.991885
128.000000	0.005514	0.018916	0.991885
129.000000	0.005328	0.018695	0.991885
130.000000	0.005213	-0.001995	0.991885
131.000000	0.005137	0.001603	0.991885
132.000000	0.005079	-0.004964	0.991885
133.000000	0.005033	0.027412	0.991885
134.000000	0.005017	0.005054	0.991885
135.000000	0.005034	0.016849	0.991885
136.000000	0.005080	0.025748	0.991885
137.000000	0.005170	0.001531	0.991885
138.000000	0.005311	0.003201	0.991885
139.000000	0.005485	0.010129	0.991885
140.000000	0.005670	0.008578	0.991885
141.000000	0.005875	-0.001932	0.991885
142.000000	0.006110	0.006864	0.991885
143.000000	0.006358	-0.001842	0.991885
144.000000	0.006587	0.004815	0.991885
145.000000	0.006782	0.015335	0.991885
146.000000	0.006975	0.015278	0.991885
147.000000	0.007208	0.009981	0.991885
148.000000	0.007473	0.021991	0.991885
149.000000	0.007738	0.001268	0.991885
150.000000	0.007991	0.016919	0.991885
151.000000	0.008231	0.003267	0.991885
152.000000	0.008465	-0.002091	0.991885
153.000000	0.008701	0.006664	0.991885
154.000000	0.008927	0.013469	0.991885
155.000000	0.009131	0.013421	0.991885
156.000000	0.009324	0.004761	0.991885
157.000000	0.009511	0.016827	0.991885
158.000000	0.009688	0.020816	0.991885
159.000000	0.009862	0.013496	0.991885
160.000000	0.010044	0.006474	0.991885
161.000000	0.010239	0.023484	0.991885
162.000000	0.010445	-0.007449	0.991885
163.000000	0.010640	0.016907	0.991885
164.000000	0.010820	0.010098	0.991885
165.000000	0.010990	0.020173	0.991885
166.000000	0.011143	0.021994	0.991885
167.000000	0.011290	0.032374	0.991885
168.000000	0.011428	0.018575	0.991885
169.000000	0.011555	0.015046	0.991885
170.000000	0.011680	-0.000531	0.991885
171.000000	0.011790	0.013395	0.991885
172.000000	0.011881	0.015109	0.991885
173.000000	0.011975	0.020276	0.991885
174.000000	0.012085	0.009583	0.991885
175.000000	0.012191	0.020053	0.991885
176.000000	0.012265	0.013418	0.991885
177.000000	0.012322	0.018416	0.991885
178.000000	0.012401	0.004667	0.991885
179.000000	0.012501	0.025332	0.991885
180.000000	0.012592	0.026961	0.991885
181.000000	0.012671	0.015063	0.991885
182.000000	0.012751	0.014754	0.991885
183.000000	0.012837	0.025196	0.991885
184.000000	0.012919	0.013180	0.991885
185.000000	0.013003	-0.003747	0.991885
186.000000	0.013096	0.008285	0.991885
187.000000	0.013196	0.016532	0.991885
188.000000	0.013294	0.027014	0.991885
189.000000	0.013370	0.015158	0.991885
190.000000	0.013427	-0.000429	0.991885
191.000000	0.013488	0.014950	0.991885
192.000000	0.013546	0.043900	0.991885
193.000000	0.013586	0.018431	0.991885
194.000000	0.013616	0.008059	0.991885
195.000000	0.013648	0.011416	0.991885
196.000000	0.013688	0.038923	0.991885
197.000000	0.013744	0.020195	0.991885
198.000000	0.013825	0.021864	0.991885
199.000000	0.013925	0.023574	0.991885
200.000000	0.014036	0.013182	0.991885
201.000000	0.014132	0.018459	0.991885
202.000000	0.014192	0.013342	0.991885
203.000000	0.014245	0.011321	0.991885
204.000000	0.014320	0.025038	0.991885
205.000000	0.014401	0.028509	0.991885
206.000000	0.014484	0.023637	0.991885
207.000000	0.014583	0.009703	0.991885
208.000000	0.014691	0.025152	0.991885
209.000000	0.014797	0.030357	0.991885
210.000000	0.014890	0.003152	0.991885
211.000000	0.014976	0.011458	0.991885
212.000000	0.015052	0.004919	0.991885
213.000000	0.015106	0.018406	0.991885
214.000000	0.015139	0.025355	0.991885
215.000000	0.015165	-0.002109	0.991885
216.000000	0.015195	0.014667	0.991885
217.000000	0.015215	0.040870	0.991885
218.000000	0.015203	0.050897	0.991885
219.000000	0.015164	-0.005541	0.991885
220.000000	0.015136	0.035574	0.991885
221.000000	0.015131	0.023324	0.991885
222.000000	0.015125	0.006266	0.991885
223.000000	0.015104	0.016886	0.991885
224.000000	0.015082	0.024904	0.991885
225.000000	0.015064	0.009892	0.991885
226.000000	0.015040	0.020127	0.991885
227.000000	0.015006	0.015203	0.991885
228.000000	0.014970	0.018396	0.991885
229.000000	0.014942	0.007923	0.991885
230.000000	0.014909	0.006264	0.991885
231.000000	0.014859	0.013310	0.991885
232.000000	0.014805	0.008484	0.991885
233.000000	0.014774	0.008068	0.991885
234.000000	0.014764	0.015191	0.991885
235.000000	0.014761	0.021830	0.991885
236.000000	0.014764	0.013335	0.991885
237.000000	0.014782	-0.007440	0.991885
238.000000	0.014807	0.025373	0.991885
239.000000	0.014825	0.027034	0.991885
240.000000	0.014832	0.022073	0.991885
241.000000	0.014834	0.016770	0.991885
242.000000	0.014841	0.011459	0.991885
243.000000	0.014844	0.018549	0.991885
244.000000	0.014858	0.028952	0.991885
245.000000	0.014907	0.020171	0.991885
246.000000	0.014976	0.016954	0.991885
247.000000	0.015048	0.016799	0.991885
248.000000	0.015120	-0.000251	0.991885
249.000000	0.015195	0.008129	0.991885
250.000000	0.015270	0.002841	0.991885
251.000000	0.015334	0.016863	0.991885
252.000000	0.015384	0.015074	0.991885
253.000000	0.015423	0.008144	0.991885
254.000000	0.015470	0.002857	0.991885
255.000000	0.015528	0.026959	0.991885
256.000000	0.015577	0.016933	0.991885
257.000000	0.015606	0.003153	0.991885
258.000000	0.015629	0.003094	0.991885
259.000000	0.015667	-0.000167	0.991885
260.000000	0.015715	0.020222	0.991885
261.000000	0.015764	-0.000122	0.991885
262.000000	0.015826	0.003178	0.991885
263.000000	0.015908	0.008129	0.991885
264.000000	0.015984	0.020367	0.991885
265.000000	0.016031	0.013448	0.991885
266.000000	0.016073	-0.005521	0.991885
267.000000	0.016147	-0.012387	0.991885
268.000000	0.016249	0.016703	0.991885
269.000000	0.016351	0.004690	0.991885
270.000000	0.016456	0.004849	0.991885
271.000000	0.016581	0.009892	0.991885
272.000000	0.016721	0.002971	0.991885
273.000000	0.016850	0.027172	0.991885
274.000000	0.016962	0.006727	0.991885
275.000000	0.017073	-0.012247	0.991885
276.000000	0.017203	-0.009183	0.991885
277.000000	0.017349	-0.000380	0.991885
278.000000	0.017492	0.000106	0.991885
279.000000	0.017636	-0.003742	0.991885
280.000000	0.017799	-0.008823	0.991885
281.000000	0.017988	-0.014221	0.991885
282.000000	0.018191	-0.015608	0.991885
283.000000	0.018390	-0.000365	0.991885
284.000000	0.018586	-0.017380	0.991885
285.000000	0.018794	-0.005624	0.991885
286.000000	0.019019	0.001175	0.991885
287.000000	0.019275	-0.026105	0.991885
288.000000	0.019587	-0.039905	0.991885
289.000000	0.019961	-0.022976	0.991885
290.000000	0.020365	-0.019351	0.991885
291.000000	0.020772	-0.015893	0.991885
292.000000	0.021198	-0.043244	0.991885
293.000000	0.021665	-0.024521	0.991885
294.000000	0.022171	-0.029606	0.991885
295.000000	0.022714	-0.027993	0.991885
296.000000	0.023313	-0.041798	0.991885
297.000000	0.023983	-0.040338	0.991885
298.000000	0.024724	-0.052437	0.991885
299.000000	0.025546	-0.033140	0.991885
300.000000	0.026470	-0.048672	0.991885
301.000000	0.027509	-0.049491	0.991885
302.000000	0.028673	-0.037749	0.991885
303.000000	0.029948	-0.056598	0.991885
304.000000	0.031343	-0.049544	0.991885
305.000000	0.032884	-0.038218	0.991885
306.000000	0.034568	-0.046964	0.991885
307.000000	0.036380	-0.038417	0.991885
308.000000	0.038331	-0.042069	0.991885
309.000000	0.040452	-0.049166	0.991885
310.000000	0.042747	-0.041064	0.991885
311.000000	0.045194	-0.039355	0.991885
312.000000	0.047808	-0.058442	0.991885
313.000000	0.050626	-0.063573	0.991885
314.000000	0.053659	-0.053614	0.991885
315.000000	0.056892	-0.050689	0.991885
316.000000	0.060298	-0.056040	0.991885
317.000000	0.063876	-0.063290	0.991885
318.000000	0.067649	-0.063027	0.991885
319.000000	0.071626	-0.073648	0.991885
320.000000	0.075787	-0.059947	0.991885
321.000000	0.080111	-0.080901	0.991885
322.000000	0.084608	-0.069193	0.991885
323.000000	0.089283	-0.059500	0.991885
324.000000	0.094113	-0.066344	0.991885
325.000000	0.099075	-0.069676	0.991885
326.000000	0.104170	-0.082215	0.991885
327.000000	0.109405	-0.081030	0.991885
328.000000	0.114764	-0.060662	0.991885
329.000000	0.120238	-0.062539	0.991885
330.000000	0.125834	-0.068087	0.991885
331.000000	0.131554	-0.068954	0.991885
332.000000	0.137394	-0.049873	0.991885
333.000000	0.143348	-0.056782	0.991885
334.000000	0.149413	-0.069088	0.991885
335.000000	0.155583	-0.086637	0.991885
336.000000	0.161846	-0.076517	0.991885
337.000000	0.168168	-0.087066	0.991885
338.000000	0.174536	-0.099233	0.991885
339.000000	0.180982	-0.103218	0.991885
340.000000	0.187539	-0.086413	0.991885
341.000000	0.194210	-0.083304	0.991885
342.000000	0.201016	-0.090511	0.991885
343.000000	0.208000	-0.097572	0.991885
344.000000	0.215155	-0.072284	0.991885
345.000000	0.222436	-0.081146	0.991885
346.000000	0.229833	-0.094844	0.991885
347.000000	0.237361	-0.092026	0.991885
348.000000	0.245009	-0.098981	0.991885
349.000000	0.252737	-0.090730	0.991885
350.000000	0.260528	-0.099553	0.991885
351.000000	0.268398	-0.098019	0.991885
352.000000	0.276356	-0.088349	0.991885
353.000000	0.284386	-0.112482	0.991885
354.000000	0.292481	-0.100354	0.991885
355.000000	0.300677	-0.105694	0.991885
356.000000	0.309019	-0.125236	0.991885
357.000000	0.317480	-0.125630	0.991885
358.000000	0.326011	-0.112251	0.991885
359.000000	0.334602	-0.134654	0.991885
360.000000	0.343274	-0.138437	0.991885
361.000000	0.352049	-0.115170	0.991885
362.000000	0.360934	-0.120909	0.991885
363.000000	0.369923	-0.129599	0.991885
364.000000	0.379023	-0.130132	0.991885
365.000000	0.388265	-0.121980	0.991885
366.000000	0.397681	-0.129605	0.991885
367.000000	0.407264	-0.119529	0.991885
368.000000	0.417010	-0.133558	0.991885
369.000000	0.426950	-0.113978	0.991885
370.000000	0.437092	-0.114615	0.991885
371.000000	0.447407	-0.101345	0.991885
372.000000	0.457882	-0.127533	0.991885
373.000000	0.468537	-0.106117	0.991885
374.000000	0.479394	-0.118611	0.991885
375.000000	0.490453	-0.112562	0.991885
376.000000	0.501702	-0.119926	0.991885
377.000000	0.513134	-0.124066	0.991885
378.000000	0.524759	-0.111203	0.991885
379.000000	0.536575	-0.092853	0.991885
380.000000	0.548586	-0.104401	0.991885
381.000000	0.560837	-0.092456	0.991885
382.000000	0.573375	-0.098281	0.991885
383.000000	0.586183	-0.090428	0.991885
384.000000	0.599214	-0.093832	0.991885
385.000000	0.612446	-0.103373	0.991885
386.000000	0.625877	-0.084252	0.991885
387.000000	0.639484	-0.090215	0.991885
388.000000	0.653242	-0.072674	0.991885
389.000000	0.667200	-0.080339	0.991885
390.000000	0.681447	-0.117040	0.991885
391.000000	0.696062	-0.097936	0.991885
392.000000	0.711114	-0.100440	0.991885
393.000000	0.726643	-0.102506	0.991885
394.000000	0.742653	-0.093855	0.991885
395.000000	0.759163	-0.106830	0.991885
396.000000	0.776212	-0.084029	0.991885
397.000000	0.793834	-0.078158	0.991885
398.000000	0.812048	-0.067182	0.991885
399.000000	0.830839	-0.064585	0.991885
400.000000	0.850136	-0.056517	0.991885
401.000000	0.869816	-0.044758	0.991885
402.000000	0.889739	-0.047026	0.991885
403.000000	0.909790	-0.054545	0.991885
404.000000	0.929866	-0.041526	0.991885
405.000000	0.949839	-0.047075	0.991885
406.000000	0.969591	-0.033625	0.991885
407.000000	0.989065	-0.035889	0.991885
408.000000	1.008240	-0.031148	0.991885
409.000000	1.027090	-0.030199	0.991885
410.000000	1.045594	-0.039194	0.991885
411.000000	1.063748	-0.059959	0.991885
412.000000	1.081558	-0.048749	0.991885
413.000000	1.099034	-0.037669	0.991885
414.000000	1.116205	-0.036492	0.991885
415.000000	1.133133	-0.048702	0.991885
416.000000	1.149894	-0.063024	0.991885
417.000000	1.166518	-0.039962	0.991885
418.000000	1.182974	-0.040371	0.991885
419.000000	1.199214	-0.046268	0.991885
420.000000	1.215237	-0.053099	0.991885
421.000000	1.231083	-0.031696	0.991885
422.000000	1.246760	-0.030152	0.991885
423.000000	1.262247	-0.030545	0.991885
424.000000	1.277544	-0.053039	0.991885
425.000000	1.292651	-0.036693	0.991885
426.000000	1.307543	-0.033476	0.991885
427.000000	1.322215	-0.037310	0.991885
428.000000	1.336706	-0.058960	0.991885
429.000000	1.351060	-0.038619	0.991885
430.000000	1.365305	-0.034101	0.991885
431.000000	1.379418	-0.034531	0.991885
432.000000	1.393351	-0.027744	0.991885
433.000000	1.407110	-0.031816	0.991885
434.000000	1.420722	-0.013533	0.991885
435.000000	1.434185	-0.024160	0.991885
436.000000	1.447510	-0.021341	0.991885
437.000000	1.460726	0.003839	0.991885
438.000000	1.473838	0.001595	0.991885
439.000000	1.486843	-0.003909	0.991885
440.000000	1.499737	0.007982	0.991885
441.000000	1.512532	0.010888	0.991885
442.000000	1.525248	0.006925	0.991885
443.000000	1.537889	-0.003725	0.991885
444.000000	1.550447	0.004475	0.991885
445.000000	1.562915	0.007506	0.991885
446.000000	1.575299	0.020858	0.991885
447.000000	1.587590	0.003686	0.991885
448.000000	1.599758	0.016698	0.991885
449.000000	1.611794	0.013070	0.991885
450.000000	1.623730	0.022819	0.991885
451.000000	1.635589	0.041232	0.991885
452.000000	1.647357	0.035667	0.991885
453.000000	1.659027	0.032317	0.991885
454.000000	1.670616	0.021243	0.991885
455.000000	1.682123	0.029402	0.991885
456.000000	1.693527	0.049672	0.991885
457.000000	1.704823	0.027069	0.991885
458.000000	1.716031	0.031801	0.991885
459.000000	1.727187	0.036142	0.991885
460.000000	1.738301	0.027486	0.991885
461.000000	1.749348	0.051393	0.991885
462.000000	1.760318	0.028284	0.991885
463.000000	1.771208	0.052112	0.991885
464.000000	1.782004	0.055242	0.991885
465.000000	1.792715	0.058257	0.991885
466.000000	1.803363	0.067961	0.991885
467.000000	1.813971	0.055399	0.991885
468.000000	1.824545	0.068925	0.991885
469.000000	1.835074	0.078709	0.991885
470.000000	1.845576	0.068017	0.991885
471.000000	1.856091	0.074311	0.991885
472.000000	1.866630	0.094276	0.991885
473.000000	1.877188	0.102474	0.991885
474.000000	1.887776	0.117594	0.991885
475.000000	1.898439	0.103511	0.991885
476.000000	1.909200	0.120020	0.991885
477.000000	1.920034	0.124548	0.991885
478.000000	1.930908	0.141391	0.991885
479.000000	1.941825	0.151353	0.991885
480.000000	1.952784	0.150612	0.991885
481.000000	1.963768	0.136659	0.991885
482.000000	1.974772	0.173702	0.991885
483.000000	1.985803	0.163406	0.991885
484.000000	1.996865	0.174805	0.991885
485.000000	2.007945	0.182965	0.991885
486.000000	2.019021	0.179280	0.991885
487.000000	2.030071	0.189182	0.991885
488.000000	2.041095	0.176979	0.991885
489.000000	2.052115	0.196912	0.991885
490.000000	2.063128	0.190290	0.991885
491.000000	2.074098	0.221945	0.991885
492.000000	2.084984	0.214962	0.991885
493.000000	2.095786	0.218066	0.991885
494.000000	2.106520	0.240235	0.991885
495.000000	2.117185	0.236096	0.991885
496.000000	2.127762	0.244564	0.991885
497.000000	2.138236	0.221700	0.991885
498.000000	2.148606	0.243853	0.991885
499.000000	2.158861	0.233378	0.991885
500.000000	2.168989	0.238333	0.991885
501.000000	2.178994	0.260447	0.991885
502.000000	2.188882	0.242523	0.991885
503.000000	2.198656	0.264478	0.991885
504.000000	2.208314	0.276506	0.991885
505.000000	2.217846	0.274813	0.991885
506.000000	2.227254	0.271077	0.991885
507.000000	2.236548	0.272372	0.991885
508.000000	2.245716	0.277019	0.991885
509.000000	2.254738	0.288831	0.991885
510.000000	2.263613	0.292374	0.991885
511.000000	2.272347	0.295383	0.991885
512.000000	2.280934	0.319519	0.991885
513.000000	2.289359	0.329742	0.991885
514.000000	2.297617	0.301977	0.991885
515.000000	2.305716	0.313733	0.991885
516.000000	2.313640	0.328984	0.991885
517.000000	2.321351	0.327203	0.991885
518.000000	2.328834	0.336060	0.991885
519.000000	2.336114	0.335619	0.991885
520.000000	2.343230	0.338942	0.991885
521.000000	2.350187	0.359007	0.991885
522.000000	2.356979	0.347030	0.991885
523.000000	2.363605	0.353613	0.991885
524.000000	2.370079	0.358507	0.991885
525.000000	2.376431	0.356776	0.991885
526.000000	2.382667	0.365195	0.991885
527.000000	2.388781	0.385705	0.991885
528.000000	2.394792	0.389020	0.991885
529.000000	2.400734	0.391984	0.991885
530.000000	2.406607	0.400522	0.991885
531.000000	2.412378	0.385107	0.991885
532.000000	2.418053	0.395079	0.991885
533.000000	2.423655	0.398322	0.991885
534.000000	2.429178	0.412006	0.991885
535.000000	2.434618	0.406618	0.991885
536.000000	2.439972	0.411818	0.991885
537.000000	2.445227	0.420206	0.991885
538.000000	2.450380	0.433717	0.991885
539.000000	2.455432	0.423609	0.991885
540.000000	2.460391	0.430276	0.991885
541.000000	2.465274	0.419448	0.991885
542.000000	2.470073	0.445344	0.991885
543.000000	2.474763	0.438360	0.991885
544.000000	2.479343	0.445209	0.991885
545.000000	2.483845	0.455309	0.991885
546.000000	2.488285	0.446739	0.991885
547.000000	2.492650	0.475683	0.991885
548.000000	2.496935	0.462276	0.991885
549.000000	2.501165	0.465271	0.991885
550.000000	2.505354	0.463311	0.991885
551.000000	2.509481	0.468591	0.991885
552.000000	2.513524	0.473587	0.991885
553.000000	2.517484	0.477164	0.991885
554.000000	2.521371	0.459743	0.991885
555.000000	2.525179	0.511055	0.991885
556.000000	2.528889	0.486998	0.991885
557.000000	2.532502	0.488759	0.991885
558.000000	2.536037	0.473221	0.991885
559.000000	2.539521	0.478403	0.991885
560.000000	2.542974	0.493766	0.991885
561.000000	2.546378	0.505410	0.991885
562.000000	2.549714	0.508933	0.991885
563.000000	2.553007	0.496875	0.991885
564.000000	2.556304	0.501811	0.991885
565.000000	2.559613	0.515167	0.991885
566.000000	2.562902	0.526959	0.991885
567.000000	2.566167	0.494729	0.991885
568.000000	2.569439	0.501205	0.991885
569.000000	2.572754	0.512738	0.991885
570.000000	2.576117	0.535062	0.991885
571.000000	2.579507	0.524741	0.991885
572.000000	2.582952	0.524490	0.991885
573.000000	2.586495	0.527662	0.991885
574.000000	2.590132	0.556500	0.991885
575.000000	2.593848	0.553171	0.991885
576.000000	2.597652	0.544467	0.991885
577.000000	2.601575	0.542509	0.991885
578.000000	2.605643	0.569489	0.991885
579.000000	2.609837	0.567771	0.991885
580.000000	2.614132	0.574469	0.991885
581.000000	2.618531	0.569053	0.991885
582.000000	2.623053	0.582519	0.991885
583.000000	2.627707	0.566673	0.991885
584.000000	2.632477	0.592556	0.991885
585.000000	2.637333	0.592554	0.991885
586.000000	2.642265	0.585478	0.991885
587.000000	2.647273	0.597170	0.991885
588.000000	2.652354	0.620976	0.991885
589.000000	2.657500	0.620595	0.991885
590.000000	2.662702	0.613963	0.991885
591.000000	2.667952	0.625689	0.991885
592.000000	2.673245	0.634044	0.991885
593.000000	2.678576	0.621957	0.991885
594.000000	2.683945	0.621897	0.991885
595.000000	2.689349	0.631968	0.991885
596.000000	2.694791	0.631628	0.991885
597.000000	2.700269	0.647139	0.991885
598.000000	2.705762	0.648837	0.991885
599.000000	2.711266	0.641923	0.991885
600.000000	2.716806	0.636275	0.991885
601.000000	2.722378	0.658344	0.991885
602.000000	2.727955	0.654988	0.991885
603.000000	2.733534	0.656692	0.991885
604.000000	2.739140	0.656412	0.991885
605.000000	2.744796	0.664886	0.991885
606.000000	2.750485	0.675159	0.991885
607.000000	2.756194	0.661191	0.991885
608.000000	2.761923	0.672976	0.991885
609.000000	2.767670	0.677790	0.991885
610.000000	2.773425	0.693264	0.991885
611.000000	2.779168	0.693130	0.991885
612.000000	2.784905	0.664048	0.991885
613.000000	2.790661	0.682482	0.991885
614.000000	2.796430	0.692817	0.991885
615.000000	2.802195	0.696173	0.991885
616.000000	2.807943	0.694300	0.991885
617.000000	2.813670	0.704585	0.991885
618.000000	2.819368	0.706054	0.991885
619.000000	2.825021	0.700863	0.991885
620.000000	2.830627	0.714626	0.991885
621.000000	2.836203	0.712602	0.991885
622.000000	2.841774	0.707329	0.991885
623.000000	2.847332	0.708926	0.991885
624.000000	2.852833	0.705695	0.991885
625.000000	2.858268	0.714136	0.991885
626.000000	2.863661	0.701712	0.991885
627.000000	2.869029	0.711663	0.991885
628.000000	2.874358	0.715597	0.991885
629.000000	2.879649	0.728807	0.991885
630.000000	2.884919	0.733890	0.991885
631.000000	2.890179	0.701193	0.991885
632.000000	2.895420	0.738705	0.991885
633.000000	2.900629	0.724675	0.991885
634.000000	2.905807	0.712751	0.991885
635.000000	2.910965	0.734920	0.991885
636.000000	2.916106	0.732840	0.991885
637.000000	2.921232	0.744936	0.991885
638.000000	2.926381	0.736252	0.991885
639.000000	2.931592	0.740907	0.991885
640.000000	2.936868	0.732264	0.991885
641.000000	2.942201	0.745902	0.991885
642.000000	2.947586	0.757673	0.991885
643.000000	2.953045	0.722930	0.991885
644.000000	2.958623	0.753686	0.991885
645.000000	2.964322	0.777085	0.991885
646.000000	2.970124	0.783927	0.991885
647.000000	2.976034	0.749300	0.991885
648.000000	2.982080	0.774917	0.991885
649.000000	2.988269	0.767651	0.991885
650.000000	2.994577	0.782882	0.991885
651.000000	3.000993	0.806952	0.991885
652.000000	3.007532	0.792803	0.991885
653.000000	3.014210	0.799261	0.991885
654.000000	3.021011	0.809300	0.991885
655.000000	3.027903	0.817945	0.991885
656.000000	3.034892	0.822708	0.991885
657.000000	3.041985	0.812256	0.991885
658.000000	3.049169	0.830586	0.991885
659.000000	3.056423	0.818888	0.991885
660.000000	3.063734	0.834105	0.991885
661.000000	3.071096	0.823096	0.991885
662.000000	3.078495	0.842234	0.991885
663.000000	3.085907	0.843763	0.991885
664.000000	3.093320	0.838378	0.991885
665.000000	3.100736	0.845127	0.991885
666.000000	3.108153	0.849972	0.991885
667.000000	3.115565	0.837729	0.991885
668.000000	3.122948	0.840961	0.991885
669.000000	3.130285	0.849670	0.991885
670.000000	3.137578	0.840897	0.991885
671.000000	3.144838	0.852433	0.991885
672.000000	3.152051	0.874785	0.991885
673.000000	3.159202	0.860963	0.991885
674.000000	3.166302	0.851988	0.991885
675.000000	3.173341	0.862257	0.991885
676.000000	3.180307	0.881021	0.991885
677.000000	3.187202	0.887783	0.991885
678.000000	3.194028	0.885815	0.991885
679.000000	3.200785	0.866699	0.991885
680.000000	3.207452	0.866766	0.991885
681.000000	3.214008	0.882174	0.991885
682.000000	3.220432	0.895620	0.991885
683.000000	3.226717	0.880271	0.991885
684.000000	3.232896	0.902195	0.991885
685.000000	3.238973	0.898904	0.991885
686.000000	3.244930	0.893586	0.991885
687.000000	3.250769	0.886559	0.991885
688.000000	3.256516	0.891515	0.991885
689.000000	3.262184	0.891430	0.991885
690.000000	3.267771	0.893096	0.991885
691.000000	3.273276	0.905202	0.991885
692.000000	3.278697	0.913475	0.991885
693.000000	3.284026	0.902979	0.991885
694.000000	3.289253	0.906463	0.991885
695.000000	3.294387	0.908231	0.991885
696.000000	3.299452	0.909984	0.991885
697.000000	3.304464	0.897737	0.991885
698.000000	3.309414	0.892294	0.991885
699.000000	3.314289	0.919663	0.991885
700.000000	3.319108	0.907834	0.991885
701.000000	3.323896	0.917767	0.991885
702.000000	3.328657	0.910618	0.991885
703.000000	3.333406	0.921112	0.991885
704.000000	3.338169	0.907112	0.991885
705.000000	3.342929	0.908768	0.991885
706.000000	3.347673	0.905142	0.991885
707.000000	3.352390	0.915267	0.991885
708.000000	3.357061	0.915431	0.991885
709.000000	3.361694	0.921988	0.991885
710.000000	3.366305	0.913395	0.991885
711.000000	3.370902	0.921839	0.991885
712.000000	3.375473	0.933752	0.991885
713.000000	3.380003	0.937097	0.991885
714.000000	3.384495	0.923197	0.991885
715.000000	3.388967	0.922967	0.991885
716.000000	3.393428	0.916209	0.991885
717.000000	3.397866	0.945214	0.991885
718.000000	3.402283	0.916200	0.991885
719.000000	3.406696	0.926248	0.991885
720.000000	3.411115	0.938057	0.991885
721.000000	3.415534	0.934515	0.991885
722.000000	3.419928	0.946462	0.991885
723.000000	3.424293	0.934386	0.991885
724.000000	3.428651	0.939436	0.991885
725.000000	3.433018	0.944368	0.991885
726.000000	3.437379	0.945912	0.991885
727.000000	3.441706	0.934138	0.991885
728.000000	3.446001	0.939049	0.991885
729.000000	3.450291	0.932238	0.991885
730.000000	3.454590	0.958842	0.991885
731.000000	3.458863	0.948934	0.991885
732.000000	3.463090	0.935415	0.991885
733.000000	3.467294	0.947170	0.991885
734.000000	3.471468	0.945298	0.991885
735.000000	3.475592	0.957269	0.991885
736.000000	3.479677	0.936657	0.991885
737.000000	3.483744	0.931569	0.991885
738.000000	3.487799	0.939855	0.991885
739.000000	3.491807	0.956821	0.991885
740.000000	3.495720	0.958531	0.991885
741.000000	3.499556	0.943338	0.991885
742.000000	3.503355	0.937963	0.991885
743.000000	3.507128	0.955314	0.991885
744.000000	3.510863	0.946270	0.991885
745.000000	3.514551	0.934705	0.991885
746.000000	3.518201	0.944700	0.991885
747.000000	3.521818	0.947908	0.991885
748.000000	3.525383	0.951495	0.991885
749.000000	3.528877	0.951364	0.991885
750.000000	3.532309	0.947979	0.991885
751.000000	3.535705	0.927064	0.991885
752.000000	3.539069	0.930601	0.991885
753.000000	3.542396	0.936028	0.991885
754.000000	3.545695	0.922099	0.991885
755.000000	3.548983	0.942628	0.991885
756.000000	3.552274	0.937243	0.991885
757.000000	3.555558	0.937229	0.991885
758.000000	3.558812	0.940823	0.991885
759.000000	3.562046	0.928581	0.991885
760.000000	3.565302	0.930365	0.991885
761.000000	3.568602	0.930055	0.991885
762.000000	3.571921	0.931783	0.991885
763.000000	3.575247	0.923211	0.991885
764.000000	3.578602	0.914669	0.991885
765.000000	3.582009	0.910875	0.991885
766.000000	3.585470	0.931531	0.991885
767.000000	3.588981	0.936489	0.991885
768.000000	3.592533	0.916159	0.991885
769.000000	3.596113	0.908829	0.991885
770.000000	3.599706	0.921148	0.991885
771.000000	3.603303	0.919324	0.991885
772.000000	3.606915	0.920989	0.991885
773.000000	3.610554	0.903699	0.991885
774.000000	3.614214	0.924136	0.991885
775.000000	3.617870	0.929434	0.991885
776.000000	3.621512	0.910428	0.991885
777.000000	3.625169	0.893418	0.991885
778.000000	3.628868	0.908600	0.991885
779.000000	3.632589	0.908642	0.991885
780.000000	3.636299	0.922268	0.991885
781.000000	3.639996	0.899851	0.991885
782.000000	3.643688	0.901430	0.991885
783.000000	3.647377	0.891102	0.991885
784.000000	3.651046	0.899838	0.991885
785.000000	3.654689	0.923728	0.991885
786.000000	3.658308	0.889515	0.991885
787.000000	3.661910	0.897916	0.991885
788.000000	3.665487	0.896237	0.991885
789.000000	3.669021	0.894396	0.991885
790.000000	3.672524	0.891154	0.991885
791.000000	3.676006	0.898091	0.991885
792.000000	3.679453	0.895853	0.991885
793.000000	3.682835	0.903007	0.991885
794.000000	3.686150	0.902927	0.991885
795.000000	3.689416	0.884009	0.991885
796.000000	3.692634	0.877003	0.991885
797.000000	3.695801	0.885967	0.991885
798.000000	3.698934	0.868658	0.991885
799.000000	3.702033	0.894209	0.991885
800.000000	3.705082	0.892370	0.991885
801.000000	3.708080	0.878879	0.991885
802.000000	3.711028	0.906185	0.991885
803.000000	3.713919	0.871763	0.991885
804.000000	3.716760	0.878797	0.991885
805.000000	3.719559	0.875237	0.991885
806.000000	3.722313	0.880349	0.991885
807.000000	3.725029	0.865135	0.991885
808.000000	3.727711	0.857994	0.991885
809.000000	3.730352	0.878522	0.991885
810.000000	3.732932	0.868504	0.991885
811.000000	3.735450	0.856334	0.991885
812.000000	3.737927	0.870153	0.991885
813.000000	3.740378	0.847524	0.991885
814.000000	3.742802	0.852654	0.991885
815.000000	3.745178	0.863313	0.991885
816.000000	3.747490	0.849483	0.991885
817.000000	3.749748	0.845831	0.991885
818.000000	3.751959	0.867977	0.991885
819.000000	3.754113	0.863110	0.991885
820.000000	3.756216	0.859682	0.991885
821.000000	3.758280	0.862977	0.991885
822.000000	3.760313	0.844097	0.991885
823.000000	3.762304	0.868200	0.991885
824.000000	3.764244	0.845681	0.991885
825.000000	3.766142	0.838946	0.991885
826.000000	3.768002	0.837068	0.991885
827.000000	3.769812	0.856029	0.991885
828.000000	3.771560	0.847746	0.991885
829.000000	3.773261	0.837524	0.991885
830.000000	3.774937	0.844325	0.991885
831.000000	3.776589	0.838728	0.991885
832.000000	3.778209	0.849415	0.991885
833.000000	3.779794	0.830519	0.991885
834.000000	3.781334	0.842623	0.991885
835.000000	3.782816	0.832058	0.991885
836.000000	3.784225	0.847370	0.991885
837.000000	3.785553	0.837363	0.991885
838.000000	3.786804	0.847632	0.991885
839.000000	3.787989	0.832032	0.991885
840.000000	3.789100	0.818399	0.991885
841.000000	3.790123	0.822136	0.991885
842.000000	3.791073	0.825518	0.991885
843.000000	3.791980	0.811740	0.991885
844.000000	3.792853	0.833876	0.991885
845.000000	3.793660	0.818342	0.991885
846.000000	3.794366	0.836113	0.991885
847.000000	3.794984	0.813685	0.991885
848.000000	3.795534	0.811695	0.991885
849.000000	3.796005	0.837790	0.991885
850.000000	3.796375	0.810498	0.991885
851.000000	3.796644	0.808688	0.991885
852.000000	3.796828	0.804976	0.991885
853.000000	3.796922	0.846426	0.991885
854.000000	3.796921	0.810707	0.991885
855.000000	3.796843	0.829683	0.991885
856.000000	3.796701	0.812495	0.991885
857.000000	3.796486	0.832876	0.991885
858.000000	3.796184	0.805743	0.991885
859.000000	3.795809	0.805984	0.991885
860.000000	3.795380	0.809069	0.991885
861.000000	3.794892	0.811021	0.991885
862.000000	3.794333	0.816227	0.991885
863.000000	3.793700	0.811281	0.991885
864.000000	3.793009	0.807750	0.991885
865.000000	3.792283	0.809358	0.991885
866.000000	3.791512	0.787349	0.991885
867.000000	3.790679	0.801372	0.991885
868.000000	3.789790	0.792566	0.991885
869.000000	3.788846	0.796195	0.991885
870.000000	3.787841	0.806508	0.991885
871.000000	3.786783	0.791191	0.991885
872.000000	3.785694	0.779352	0.991885
873.000000	3.784585	0.796458	0.991885
874.000000	3.783433	0.789619	0.991885
875.000000	3.782223	0.798829	0.991885
876.000000	3.780958	0.764562	0.991885
877.000000	3.779649	0.773121	0.991885
878.000000	3.778303	0.778128	0.991885
879.000000	3.776908	0.776260	0.991885
880.000000	3.775459	0.768275	0.991885
881.000000	3.773968	0.762927	0.991885
882.000000	3.772439	0.752716	0.991885
883.000000	3.770873	0.768411	0.991885
884.000000	3.769264	0.744311	0.991885
885.000000	3.767611	0.760103	0.991885
886.000000	3.765923	0.763399	0.991885
887.000000	3.764209	0.749943	0.991885
888.000000	3.762460	0.741518	0.991885
889.000000	3.760676	0.745060	0.991885
890.000000	3.758875	0.731278	0.991885
891.000000	3.757051	0.731211	0.991885
892.000000	3.755180	0.733151	0.991885
893.000000	3.753264	0.740243	0.991885
894.000000	3.751327	0.723018	0.991885
895.000000	3.749391	0.723268	0.991885
896.000000	3.747456	0.730205	0.991885
897.000000	3.745514	0.719893	0.991885
898.000000	3.743579	0.723406	0.991885
899.000000	3.741668	0.706121	0.991885
900.000000	3.739779	0.721721	0.991885
901.000000	3.737908	0.718365	0.991885
902.000000	3.736090	0.711658	0.991885
903.000000	3.734352	0.709777	0.991885
904.000000	3.732694	0.708131	0.991885
905.000000	3.731106	0.704948	0.991885
906.000000	3.729576	0.711802	0.991885
907.000000	3.728103	0.699936	0.991885
908.000000	3.726706	0.703096	0.991885
909.000000	3.725392	0.692815	0.991885
910.000000	3.724149	0.699849	0.991885
911.000000	3.722989	0.696409	0.991885
912.000000	3.721928	0.694382	0.991885
913.000000	3.720951	0.699565	0.991885
914.000000	3.720038	0.694650	0.991885
915.000000	3.719206	0.686271	0.991885
916.000000	3.718486	0.686118	0.991885
917.000000	3.717885	0.691457	0.991885
918.000000	3.717372	0.693056	0.991885
919.000000	3.716913	0.691655	0.991885
920.000000	3.716505	0.681299	0.991885
921.000000	3.716159	0.686238	0.991885
922.000000	3.715868	0.698321	0.991885
923.000000	3.715622	0.671126	0.991885
924.000000	3.715430	0.686563	0.991885
925.000000	3.715306	0.679420	0.991885
926.000000	3.715232	0.681200	0.991885
927.000000	3.715171	0.684602	0.991885
928.000000	3.715118	0.671242	0.991885
929.000000	3.715105	0.669618	0.991885
930.000000	3.715152	0.677825	0.991885
931.000000	3.715218	0.664377	0.991885
932.000000	3.715266	0.693868	0.991885
933.000000	3.715292	0.673213	0.991885
934.000000	3.715301	0.671104	0.991885
935.000000	3.715297	0.655876	0.991885
936.000000	3.715270	0.669686	0.991885
937.000000	3.715210	0.657870	0.991885
938.000000	3.715125	0.662909	0.991885
939.000000	3.715026	0.647577	0.991885
940.000000	3.714913	0.664691	0.991885
941.000000	3.714779	0.656426	0.991885
942.000000	3.714617	0.663412	0.991885
943.000000	3.714432	0.639314	0.991885
944.000000	3.714212	0.660000	0.991885
945.000000	3.713935	0.649798	0.991885
946.000000	3.713608	0.653366	0.991885
947.000000	3.713261	0.644783	0.991885
948.000000	3.712897	0.629240	0.991885
949.000000	3.712485	0.622624	0.991885
950.000000	3.712023	0.627978	0.991885
951.000000	3.711535	0.627931	0.991885
952.000000	3.711047	0.617829	0.991885
953.000000	3.710552	0.631180	0.991885
954.000000	3.710027	0.633503	0.991885
955.000000	3.709457	0.631779	0.991885
956.000000	3.708842	0.596014	0.991885
957.000000	3.708196	0.621718	0.991885
958.000000	3.707525	0.621727	0.991885
959.000000	3.706821	0.603041	0.991885
960.000000	3.706091	0.604869	0.991885
961.000000	3.705333	0.599549	0.991885
962.000000	3.704524	0.604947	0.991885
963.000000	3.703654	0.598385	0.991885
964.000000	3.702741	0.583130	0.991885
965.000000	3.701810	0.579708	0.991885
966.000000	3.700859	0.593363	0.991885
967.000000	3.699883	0.600130	0.991885
968.000000	3.698868	0.574895	0.991885
969.000000	3.697796	0.583535	0.991885
970.000000	3.696677	0.582021	0.991885
971.000000	3.695538	0.574912	0.991885
972.000000	3.694376	0.578439	0.991885
973.000000	3.693159	0.582222	0.991885
974.000000	3.691892	0.561833	0.991885
975.000000	3.690590	0.552981	0.991885
976.000000	3.689248	0.565243	0.991885
977.000000	3.687861	0.565344	0.991885
978.000000	3.686442	0.558489	0.991885
979.000000	3.685008	0.568639	0.991885
980.000000	3.683563	0.555789	0.991885
981.000000	3.682096	0.541658	0.991885
982.000000	3.680598	0.529867	0.991885
983.000000	3.679089	0.535035	0.991885
984.000000	3.677587	0.548699	0.991885
985.000000	3.676078	0.523168	0.991885
986.000000	3.674544	0.545862	0.991885
987.000000	3.672994	0.533794	0.991885
988.000000	3.671446	0.532027	0.991885
989.000000	3.669895	0.543977	0.991885
990.000000	3.668317	0.528873	0.991885
991.000000	3.666718	0.527433	0.991885
992.000000	3.665120	0.515038	0.991885
993.000000	3.663518	0.520459	0.991885
994.000000	3.661892	0.536026	0.991885
995.000000	3.660251	0.520874	0.991885
996.000000	3.658605	0.520609	0.991885
997.000000	3.656944	0.505086	0.991885
998.000000	3.655263	0.520726	0.991885
999.000000	3.653563	0.503975	0.991885
1000.000000	3.651852	0.495599	0.991885
1001.000000	3.650152	0.498937	0.991885
1002.000000	3.648461	0.515922	0.991885
1003.000000	3.646755	0.500753	0.991885
1004.000000	3.645033	0.502639	0.991885
1005.000000	3.643301	0.512965	0.991885
1006.000000	3.641567	0.499464	0.991885
1007.000000	3.639822	0.509700	0.991885
1008.000000	3.638048	0.496226	0.991885
1009.000000	3.636252	0.496131	0.991885
1010.000000	3.634445	0.484154	0.991885
1011.000000	3.632620	0.487703	0.991885
1012.000000	3.630768	0.491490	0.991885
1013.000000	3.628891	0.476098	0.991885
1014.000000	3.627003	0.482957	0.991885
1015.000000	3.625118	0.469056	0.991885
1016.000000	3.623221	0.496851	0.991885
1017.000000	3.621302	0.469588	0.991885
1018.000000	3.619372	0.478153	0.991885
1019.000000	3.617439	0.468041	0.991885
1020.000000	3.615486	0.476753	0.991885
1021.000000	3.613500	0.468396	0.991885
1022.000000	3.611489	0.466722	0.991885
1023.000000	3.609465	0.461481	0.991885
1024.000000	3.607419	0.468549	0.991885
1025.000000	3.605333	0.458586	0.991885
1026.000000	3.603222	0.446656	0.991885
1027.000000	3.601102	0.448380	0.991885
1028.000000	3.598953	0.453557	0.991885
1029.000000	3.596759	0.450499	0.991885
1030.000000	3.594532	0.428249	0.991885
1031.000000	3.592288	0.417859	0.991885
1032.000000	3.590019	0.455792	0.991885
1033.000000	3.587694	0.448992	0.991885
1034.000000	3.585333	0.430590	0.991885
1035.000000	3.582982	0.418663	0.991885
1036.000000	3.580653	0.440505	0.991885
1037.000000	3.578314	0.418414	0.991885
1038.000000	3.575938	0.413772	0.991885
1039.000000	3.573547	0.419015	0.991885
1040.000000	3.571169	0.415599	0.991885
1041.000000	3.568798	0.411999	0.991885
1042.000000	3.566417	0.403582	0.991885
1043.000000	3.564015	0.402381	0.991885
1044.000000	3.561604	0.410764	0.991885
1045.000000	3.559189	0.405712	0.991885
1046.000000	3.556764	0.397436	0.991885
1047.000000	3.554327	0.406149	0.991885
1048.000000	3.551893	0.389032	0.991885
1049.000000	3.549478	0.401106	0.991885
1050.000000	3.547079	0.399249	0.991885
1051.000000	3.544684	0.401571	0.991885
1052.000000	3.542276	0.379255	0.991885
1053.000000	3.539856	0.360425	0.991885
1054.000000	3.537467	0.382743	0.991885
1055.000000	3.535101	0.379579	0.991885
1056.000000	3.532715	0.384942	0.991885
1057.000000	3.530313	0.364492	0.991885
1058.000000	3.527923	0.370876	0.991885
1059.000000	3.525552	0.362754	0.991885
1060.000000	3.523183	0.345778	0.991885
1061.000000	3.520794	0.354634	0.991885
1062.000000	3.518393	0.354814	0.991885
1063.000000	3.516006	0.349500	0.991885
1064.000000	3.513640	0.344591	0.991885
1065.000000	3.511270	0.346482	0.991885
1066.000000	3.508873	0.324475	0.991885
1067.000000	3.506455	0.339750	0.991885
1068.000000	3.504031	0.320962	0.991885
1069.000000	3.501607	0.328062	0.991885
1070.000000	3.499175	0.321342	0.991885
1071.000000	3.496735	0.320099	0.991885
1072.000000	3.494296	0.324919	0.991885
1073.000000	3.491845	0.332149	0.991885
1074.000000	3.489365	0.320319	0.991885
1075.000000	3.486853	0.308524	0.991885
1076.000000	3.484325	0.299917	0.991885
1077.000000	3.481786	0.303390	0.991885
1078.000000	3.479220	0.303421	0.991885
1079.000000	3.476603	0.279499	0.991885
1080.000000	3.473938	0.298805	0.991885
1081.000000	3.471257	0.295552	0.991885
1082.000000	3.468565	0.293906	0.991885
1083.000000	3.465825	0.280401	0.991885
1084.000000	3.463024	0.285573	0.991885
1085.000000	3.460179	0.282294	0.991885
1086.000000	3.457293	0.268618	0.991885
1087.000000	3.454360	0.274033	0.991885
1088.000000	3.451392	0.256648	0.991885
1089.000000	3.448410	0.262434	0.991885
1090.000000	3.445407	0.246645	0.991885
1091.000000	3.442351	0.248819	0.991885
1092.000000	3.439214	0.261089	0.991885
1093.000000	3.436013	0.249428	0.991885
1094.000000	3.432790	0.244006	0.991885
1095.000000	3.429542	0.239213	0.991885
1096.000000	3.426243	0.237750	0.991885
1097.000000	3.422886	0.227617	0.991885
1098.000000	3.419491	0.217257	0.991885
1099.000000	3.416076	0.231226	0.991885
1100.000000	3.412624	0.229777	0.991885
1101.000000	3.409120	0.210989	0.991885
1102.000000	3.405572	0.224985	0.991885
1103.000000	3.401994	0.211305	0.991885
1104.000000	3.398373	0.201312	0.991885
1105.000000	3.394692	0.213819	0.991885
1106.000000	3.390957	0.198336	0.991885
1107.000000	3.387189	0.194820	0.991885
1108.000000	3.383376	0.213627	0.991885
1109.000000	3.379483	0.205458	0.991885
1110.000000	3.375492	0.190354	0.991885
1111.000000	3.371425	0.175024	0.991885
1112.000000	3.367308	0.175014	0.991885
1113.000000	3.363138	0.166443	0.991885
1114.000000	3.358904	0.172235	0.991885
1115.000000	3.354616	0.158445	0.991885
1116.000000	3.350289	0.146454	0.991885
1117.000000	3.345911	0.160673	0.991885
1118.000000	3.341461	0.164290	0.991885
1119.000000	3.336940	0.165962	0.991885
1120.000000	3.332376	0.156100	0.991885
1121.000000	3.327778	0.137029	0.991885
1122.000000	3.323131	0.154638	0.991885
1123.000000	3.318424	0.175545	0.991885
1124.000000	3.313678	0.160233	0.991885
1125.000000	3.308921	0.125914	0.991885
1126.000000	3.304152	0.144792	0.991885
1127.000000	3.299352	0.131410	0.991885
1128.000000	3.294507	0.133544	0.991885
1129.000000	3.289629	0.130064	0.991885
1130.000000	3.284737	0.114862	0.991885
1131.000000	3.279823	0.114898	0.991885
1132.000000	3.274861	0.122118	0.991885
1133.000000	3.269844	0.119033	0.991885
1134.000000	3.264794	0.110612	0.991885
1135.000000	3.259718	0.093295	0.991885
1136.000000	3.254605	0.105985	0.991885
1137.000000	3.249447	0.105955	0.991885
1138.000000	3.244254	0.102629	0.991885
1139.000000	3.239046	0.083968	0.991885
1140.000000	3.233836	0.082457	0.991885
1141.000000	3.228605	0.089461	0.991885
1142.000000	3.223330	0.091296	0.991885
1143.000000	3.218012	0.081490	0.991885
1144.000000	3.212664	0.081312	0.991885
1145.000000	3.207287	0.074592	0.991885
1146.000000	3.201872	0.078355	0.991885
1147.000000	3.196425	0.059684	0.991885
1148.000000	3.190958	0.061374	0.991885
1149.000000	3.185473	0.061539	0.991885
1150.000000	3.179959	0.072240	0.991885
1151.000000	3.174406	0.056711	0.991885
1152.000000	3.168830	0.039952	0.991885
1153.000000	3.163253	0.058998	0.991885
1154.000000	3.157668	0.069334	0.991885
1155.000000	3.152055	0.066146	0.991885
1156.000000	3.146427	0.042387	0.991885
1157.000000	3.140810	0.052478	0.991885
1158.000000	3.135192	0.059738	0.991885
1159.000000	3.129555	0.047847	0.991885
1160.000000	3.123911	0.044569	0.991885
1161.000000	3.118289	0.032915	0.991885
1162.000000	3.112709	0.051663	0.991885
1163.000000	3.107152	0.058666	0.991885
1164.000000	3.101604	0.034813	0.991885
1165.000000	3.096088	0.035083	0.991885
1166.000000	3.090632	0.021333	0.991885
1167.000000	3.085219	0.040389	0.991885
1168.000000	3.079825	0.040531	0.991885
1169.000000	3.074460	0.032054	0.991885
1170.000000	3.069130	0.047543	0.991885
1171.000000	3.063831	0.015133	0.991885
1172.000000	3.058565	0.032281	0.991885
1173.000000	3.053334	0.043139	0.991885
1174.000000	3.048134	0.029323	0.991885
1175.000000	3.042966	0.024076	0.991885
1176.000000	3.037831	0.039545	0.991885
1177.000000	3.032725	0.031582	0.991885
1178.000000	3.027657	0.033417	0.991885
1179.000000	3.022644	0.019571	0.991885
1180.000000	3.017692	0.028087	0.991885
1181.000000	3.012783	0.033662	0.991885
1182.000000	3.007891	0.028626	0.991885
1183.000000	3.003027	0.026982	0.991885
1184.000000	2.998204	0.035469	0.991885
1185.000000	2.993429	0.032189	0.991885
1186.000000	2.988711	0.028711	0.991885
1187.000000	2.984051	0.037792	0.991885
1188.000000	2.979461	0.042599	0.991885
1189.000000	2.974945	0.042630	0.991885
1190.000000	2.970486	0.036139	0.991885
1191.000000	2.966098	0.041422	0.991885
1192.000000	2.961813	0.032534	0.991885
1193.000000	2.957626	0.043004	0.991885
1194.000000	2.953511	0.038087	0.991885
1195.000000	2.949455	0.039969	0.991885
1196.000000	2.945489	0.043258	0.991885
1197.000000	2.941640	0.021025	0.991885
1198.000000	2.937891	0.049852	0.991885
1199.000000	2.934206	0.043442	0.991885
1200.000000	2.930578	0.052081	0.991885
1201.000000	2.927031	0.047190	0.991885
1202.000000	2.923589	0.028180	0.991885
1203.000000	2.920247	0.052298	0.991885
1204.000000	2.916988	0.055588	0.991885
1205.000000	2.913807	0.067921	0.991885
1206.000000	2.910709	0.036858	0.991885
1207.000000	2.907686	0.048741	0.991885
1208.000000	2.904732	0.040350	0.991885
1209.000000	2.901829	0.051072	0.991885
1210.000000	2.898963	0.061100	0.991885
1211.000000	2.896148	0.047184	0.991885
1212.000000	2.893387	0.051019	0.991885
1213.000000	2.890677	0.052721	0.991885
1214.000000	2.888025	0.063261	0.991885
1215.000000	2.885455	0.047750	0.991885
1216.000000	2.882975	0.084884	0.991885
1217.000000	2.880542	0.083865	0.991885
1218.000000	2.878118	0.083919	0.991885
1219.000000	2.875725	0.075201	0.991885
1220.000000	2.873405	0.066100	0.991885
1221.000000	2.871163	0.080553	0.991885
1222.000000	2.868978	0.078849	0.991885
1223.000000	2.866841	0.063680	0.991885
1224.000000	2.864759	0.052999	0.991885
1225.000000	2.862714	0.068558	0.991885
1226.000000	2.860675	0.091000	0.991885
1227.000000	2.858644	0.067326	0.991885
1228.000000	2.856651	0.055148	0.991885
1229.000000	2.854705	0.072321	0.991885
1230.000000	2.852785	0.068848	0.991885
1231.000000	2.850878	0.070798	0.991885
1232.000000	2.849002	0.058901	0.991885
1233.000000	2.847174	0.050179	0.991885
1234.000000	2.845381	0.091414	0.991885
1235.000000	2.843596	0.079340	0.991885
1236.000000	2.841806	0.057042	0.991885
1237.000000	2.840022	0.092754	0.991885
1238.000000	2.838243	0.077649	0.991885
1239.000000	2.836461	0.096639	0.991885
1240.000000	2.834670	0.088332	0.991885
1241.000000	2.832889	0.076110	0.991885
1242.000000	2.831131	0.067353	0.991885
1243.000000	2.829363	0.091577	0.991885
1244.000000	2.827567	0.079929	0.991885
1245.000000	2.825769	0.071331	0.991885
1246.000000	2.823981	0.060859	0.991885
1247.000000	2.822190	0.091658	0.991885
1248.000000	2.820385	0.078180	0.991885
1249.000000	2.818581	0.086858	0.991885
1250.000000	2.816798	0.084919	0.991885
1251.000000	2.815024	0.091658	0.991885
1252.000000	2.813238	0.086777	0.991885
1253.000000	2.811452	0.088538	0.991885
1254.000000	2.809691	0.075004	0.991885
1255.000000	2.807973	0.086609	0.991885
1256.000000	2.806283	0.095315	0.991885
1257.000000	2.804590	0.088689	0.991885
1258.000000	2.802898	0.085339	0.991885
1259.000000	2.801230	0.074834	0.991885
1260.000000	2.799583	0.077866	0.991885
1261.000000	2.797932	0.088689	0.991885
1262.000000	2.796263	0.087157	0.991885
1263.000000	2.794591	0.095760	0.991885
1264.000000	2.792951	0.088843	0.991885
1265.000000	2.791345	0.097225	0.991885
1266.000000	2.789737	0.090611	0.991885
1267.000000	2.788113	0.097448	0.991885
1268.000000	2.786480	0.090657	0.991885
1269.000000	2.784843	0.087047	0.991885
1270.000000	2.783207	0.083856	0.991885
1271.000000	2.781576	0.083802	0.991885
1272.000000	2.779955	0.097662	0.991885
1273.000000	2.778354	0.085623	0.991885
1274.000000	2.776758	0.073751	0.991885
1275.000000	2.775160	0.077350	0.991885
1276.000000	2.773566	0.077582	0.991885
1277.000000	2.771979	0.090748	0.991885
1278.000000	2.770396	0.080539	0.991885
1279.000000	2.768794	0.082509	0.991885
1280.000000	2.767158	0.094568	0.991885
1281.000000	2.765499	0.077528	0.991885
1282.000000	2.763823	0.080890	0.991885
1283.000000	2.762111	0.089550	0.991885
1284.000000	2.760353	0.089596	0.991885
1285.000000	2.758558	0.064017	0.991885
1286.000000	2.756739	0.077381	0.991885
1287.000000	2.754889	0.074320	0.991885
1288.000000	2.752988	0.069203	0.991885
1289.000000	2.751051	0.086709	0.991885
1290.000000	2.749099	0.084815	0.991885
1291.000000	2.747128	0.084718	0.991885
1292.000000	2.745105	0.083157	0.991885
1293.000000	2.743000	0.088609	0.991885
1294.000000	2.740831	0.059648	0.991885
1295.000000	2.738629	0.055913	0.991885
1296.000000	2.736391	0.078197	0.991885
1297.000000	2.734095	0.085352	0.991885
1298.000000	2.731740	0.054601	0.991885
1299.000000	2.729352	0.071614	0.991885
1300.000000	2.726926	0.078678	0.991885
1301.000000	2.724440	0.072041	0.991885
1302.000000	2.721902	0.063478	0.991885
1303.000000	2.719344	0.058514	0.991885
1304.000000	2.716782	0.058386	0.991885
1305.000000	2.714183	0.068643	0.991885
1306.000000	2.711537	0.070800	0.991885
1307.000000	2.708887	0.051667	0.991885
1308.000000	2.706242	0.065492	0.991885
1309.000000	2.703561	0.065449	0.991885
1310.000000	2.700824	0.057182	0.991885
1311.000000	2.698050	0.031610	0.991885
1312.000000	2.695264	0.053831	0.991885
1313.000000	2.692461	0.058671	0.991885
1314.000000	2.689638	0.064243	0.991885
1315.000000	2.686805	0.042270	0.991885
1316.000000	2.683973	0.033277	0.991885
1317.000000	2.681152	0.058985	0.991885
1318.000000	2.678325	0.045604	0.991885
1319.000000	2.675464	0.050924	0.991885
1320.000000	2.672592	0.045700	0.991885
1321.000000	2.669759	0.045938	0.991885
1322.000000	2.666954	0.057799	0.991885
1323.000000	2.664119	0.051198	0.991885
1324.000000	2.661239	0.027325	0.991885
1325.000000	2.658341	0.018602	0.991885
1326.000000	2.655425	0.034038	0.991885
1327.000000	2.652458	0.041247	0.991885
1328.000000	2.649416	0.031106	0.991885
1329.000000	2.646312	0.041498	0.991885
1330.000000	2.643190	0.032809	0.991885
1331.000000	2.640065	0.034584	0.991885
1332.000000	2.636928	0.033154	0.991885
1333.000000	2.633766	0.026162	0.991885
1334.000000	2.630587	0.036544	0.991885
1335.000000	2.627398	0.033020	0.991885
1336.000000	2.624184	0.038285	0.991885
1337.000000	2.620935	0.005875	0.991885
1338.000000	2.617666	0.007705	0.991885
1339.000000	2.614384	0.031608	0.991885
1340.000000	2.611077	0.030144	0.991885
1341.000000	2.607740	0.020229	0.991885
1342.000000	2.604392	0.014842	0.991885
1343.000000	2.601047	0.025114	0.991885
1344.000000	2.597690	0.019981	0.991885
1345.000000	2.594301	0.015304	0.991885
1346.000000	2.590882	0.001448	0.991885
1347.000000	2.587441	0.001749	0.991885
1348.000000	2.583991	0.003222	0.991885
1349.000000	2.580529	0.005202	0.991885
1350.000000	2.577059	0.010536	0.991885
1351.000000	2.573589	0.005183	0.991885
1352.000000	2.570114	0.001753	0.991885
1353.000000	2.566633	0.014319	0.991885
1354.000000	2.563143	-0.003171	0.991885
1355.000000	2.559652	0.020956	0.991885
1356.000000	2.556191	-0.003178	0.991885
1357.000000	2.552770	0.015990	0.991885
1358.000000	2.549365	0.021315	0.991885
1359.000000	2.545966	0.023078	0.991885
1360.000000	2.542590	-0.004699	0.991885
1361.000000	2.539249	0.017811	0.991885
1362.000000	2.535942	0.018053	0.991885
1363.000000	2.532674	0.002516	0.991885
1364.000000	2.529463	-0.000969	0.991885
1365.000000	2.526321	0.012731	0.991885
1366.000000	2.523246	-0.004315	0.991885
1367.000000	2.520228	0.026581	0.991885
1368.000000	2.517278	0.007775	0.991885
1369.000000	2.514414	0.000619	0.991885
1370.000000	2.511618	0.014462	0.991885
1371.000000	2.508865	0.031925	0.991885
1372.000000	2.506180	0.018218	0.991885
1373.000000	2.503596	-0.005980	0.991885
1374.000000	2.501115	0.017832	0.991885
1375.000000	2.498712	0.019885	0.991885
1376.000000	2.496383	0.020027	0.991885
1377.000000	2.494147	0.028303	0.991885
1378.000000	2.492014	0.021365	0.991885
1379.000000	2.489975	0.024839	0.991885
1380.000000	2.487999	0.035194	0.991885
1381.000000	2.486066	0.032153	0.991885
1382.000000	2.484182	0.014663	0.991885
1383.000000	2.482350	0.028411	0.991885
1384.000000	2.480567	0.040425	0.991885
1385.000000	2.478823	0.032115	0.991885
1386.000000	2.477103	0.026864	0.991885
1387.000000	2.475407	0.026753	0.991885
1388.000000	2.473745	0.033739	0.991885
1389.000000	2.472112	0.047393	0.991885
1390.000000	2.470502	0.049380	0.991885
1391.000000	2.468931	0.032034	0.991885
1392.000000	2.467401	0.048986	0.991885
1393.000000	2.465884	0.028968	0.991885
1394.000000	2.464368	0.042662	0.991885
1395.000000	2.462874	0.035735	0.991885
1396.000000	2.461402	0.032338	0.991885
1397.000000	2.459937	0.035877	0.991885
1398.000000	2.458467	0.049405	0.991885
1399.000000	2.456983	0.058301	0.991885
1400.000000	2.455498	0.044153	0.991885
1401.000000	2.454014	0.068432	0.991885
1402.000000	2.452529	0.046326	0.991885
1403.000000	2.451064	0.042801	0.991885
1404.000000	2.449639	0.044598	0.991885
1405.000000	2.448239	0.049373	0.991885
1406.000000	2.446824	0.054830	0.991885
1407.000000	2.445376	0.039729	0.991885
1408.000000	2.443903	0.061621	0.991885
1409.000000	2.442405	0.061617	0.991885
1410.000000	2.440879	0.063616	0.991885
1411.000000	2.439315	0.060155	0.991885
1412.000000	2.437715	0.063889	0.991885
1413.000000	2.436091	0.051567	0.991885
1414.000000	2.434452	0.046593	0.991885
1415.000000	2.432787	0.073769	0.991885
1416.000000	2.431101	0.063805	0.991885
1417.000000	2.429411	0.065876	0.991885
1418.000000	2.427731	0.057014	0.991885
1419.000000	2.426043	0.070566	0.991885
1420.000000	2.424327	0.057208	0.991885
1421.000000	2.422585	0.062397	0.991885
1422.000000	2.420833	0.040200	0.991885
1423.000000	2.419082	0.032888	0.991885
1424.000000	2.417324	0.048893	0.991885
1425.000000	2.415549	0.060974	0.991885
1426.000000	2.413762	0.053792	0.991885
1427.000000	2.411987	0.055652	0.991885
1428.000000	2.410224	0.052152	0.991885
1429.000000	2.408444	0.066497	0.991885
1430.000000	2.406642	0.057784	0.991885
1431.000000	2.404838	0.037017	0.991885
1432.000000	2.403040	0.044331	0.991885
1433.000000	2.401239	0.055960	0.991885
1434.000000	2.399430	0.032314	0.991885
1435.000000	2.397622	0.040716	0.991885
1436.000000	2.395822	0.040783	0.991885
1437.000000	2.394024	0.046070	0.991885
1438.000000	2.392235	0.032721	0.991885
1439.000000	2.390464	0.020427	0.991885
1440.000000	2.388696	0.041110	0.991885
1441.000000	2.386919	0.019037	0.991885
1442.000000	2.385144	0.012225	0.991885
1443.000000	2.383389	0.029036	0.991885
1444.000000	2.381659	0.006870	0.991885
1445.000000	2.379943	0.024211	0.991885
1446.000000	2.378222	0.038118	0.991885
1447.000000	2.376491	0.034847	0.991885
1448.000000	2.374762	0.020979	0.991885
1449.000000	2.373036	0.026148	0.991885
1450.000000	2.371296	0.010788	0.991885
1451.000000	2.369544	0.023084	0.991885
1452.000000	2.367801	0.028325	0.991885
1453.000000	2.366082	0.007959	0.991885
1454.000000	2.364380	0.009574	0.991885
1455.000000	2.362668	0.002709	0.991885
1456.000000	2.360942	-0.007400	0.991885
1457.000000	2.359219	-0.000769	0.991885
1458.000000	2.357494	0.006454	0.991885
1459.000000	2.355749	0.010213	0.991885
1460.000000	2.353985	-0.003787	0.991885
1461.000000	2.352212	-0.008543	0.991885
1462.000000	2.350437	-0.007129	0.991885
1463.000000	2.348641	-0.003535	0.991885
1464.000000	2.346797	0.008848	0.991885
1465.000000	2.344901	-0.015219	0.991885
1466.000000	2.342963	-0.003385	0.991885
1467.000000	2.340992	-0.005198	0.991885
1468.000000	2.338975	-0.013396	0.991885
1469.000000	2.336900	-0.011586	0.991885
1470.000000	2.334784	-0.016594	0.991885
1471.000000	2.332645	-0.009851	0.991885
1472.000000	2.330491	-0.018295	0.991885
1473.000000	2.328327	-0.021385	0.991885
1474.000000	2.326161	-0.036968	0.991885
1475.000000	2.324001	-0.023471	0.991885
1476.000000	2.321836	-0.033787	0.991885
1477.000000	2.319616	-0.036725	0.991885
1478.000000	2.317335	-0.034893	0.991885
1479.000000	2.315025	-0.040063	0.991885
1480.000000	2.312695	-0.041584	0.991885
1481.000000	2.310328	-0.031093	0.991885
1482.000000	2.307909	-0.039783	0.991885
1483.000000	2.305450	-0.056727	0.991885
1484.000000	2.302965	-0.036154	0.991885
1485.000000	2.300444	-0.027309	0.991885
1486.000000	2.297875	-0.047945	0.991885
1487.000000	2.295257	-0.047725	0.991885
1488.000000	2.292604	-0.042783	0.991885
1489.000000	2.289913	-0.066447	0.991885
1490.000000	2.287162	-0.047383	0.991885
1491.000000	2.284359	-0.062638	0.991885
1492.000000	2.281523	-0.061082	0.991885
1493.000000	2.278662	-0.071341	0.991885
1494.000000	2.275756	-0.036844	0.991885
1495.000000	2.272777	-0.069079	0.991885
1496.000000	2.269724	-0.079287	0.991885
1497.000000	2.266624	-0.080911	0.991885
1498.000000	2.263489	-0.081003	0.991885
1499.000000	2.260297	-0.054892	0.991885
1500.000000	2.257025	-0.075396	0.991885
1501.000000	2.253676	-0.099279	0.991885
1502.000000	2.250256	-0.088913	0.991885
1503.000000	2.246757	-0.071646	0.991885
1504.000000	2.243177	-0.093776	0.991885
1505.000000	2.239531	-0.097027	0.991885
1506.000000	2.235832	-0.110862	0.991885
1507.000000	2.232067	-0.096879	0.991885
1508.000000	2.228221	-0.100165	0.991885
1509.000000	2.224309	-0.117019	0.991885
1510.000000	2.220356	-0.111965	0.991885
1511.000000	2.216360	-0.104991	0.991885
1512.000000	2.212324	-0.117094	0.991885
1513.000000	2.208246	-0.101501	0.991885
1514.000000	2.204107	-0.111562	0.991885
1515.000000	2.199919	-0.114912	0.991885
1516.000000	2.195698	-0.115043	0.991885
1517.000000	2.191430	-0.119842	0.991885
1518.000000	2.187113	-0.124718	0.991885
1519.000000	2.182764	-0.116056	0.991885
1520.000000	2.178398	-0.117619	0.991885
1521.000000	2.174009	-0.126447	0.991885
1522.000000	2.169594	-0.131094	0.991885
1523.000000	2.165174	-0.134549	0.991885
1524.000000	2.160771	-0.126017	0.991885
1525.000000	2.156392	-0.134411	0.991885
1526.000000	2.152036	-0.135875	0.991885
1527.000000	2.147714	-0.125868	0.991885
1528.000000	2.143453	-0.147980	0.991885
1529.000000	2.139278	-0.148053	0.991885
1530.000000	2.135191	-0.130678	0.991885
1531.000000	2.131179	-0.147581	0.991885
1532.000000	2.127244	-0.132410	0.991885
1533.000000	2.123399	-0.146012	0.991885
1534.000000	2.119637	-0.133781	0.991885
1535.000000	2.115957	-0.132415	0.991885
1536.000000	2.112374	-0.152583	0.991885
1537.000000	2.108893	-0.142720	0.991885
1538.000000	2.105497	-0.135706	0.991885
1539.000000	2.102176	-0.152467	0.991885
1540.000000	2.098954	-0.143533	0.991885
1541.000000	2.095856	-0.143802	0.991885
1542.000000	2.092870	-0.131818	0.991885
1543.000000	2.089968	-0.140347	0.991885
1544.000000	2.087144	-0.131558	0.991885
1545.000000	2.084407	-0.165953	0.991885
1546.000000	2.081777	-0.179634	0.991885
1547.000000	2.079249	-0.138362	0.991885
1548.000000	2.076804	-0.138210	0.991885
1549.000000	2.074452	-0.158707	0.991885
1550.000000	2.072200	-0.160635	0.991885
1551.000000	2.070022	-0.153828	0.991885
1552.000000	2.067902	-0.146692	0.991885
1553.000000	2.065858	-0.165298	0.991885
1554.000000	2.063904	-0.155429	0.991885
1555.000000	2.062025	-0.134932	0.991885
1556.000000	2.060198	-0.155174	0.991885
1557.000000	2.058409	-0.148339	0.991885
1558.000000	2.056662	-0.153453	0.991885
1559.000000	2.054967	-0.155008	0.991885
1560.000000	2.053315	-0.146750	0.991885
1561.000000	2.051687	-0.149823	0.991885
1562.000000	2.050072	-0.139450	0.991885
1563.000000	2.048486	-0.172261	0.991885
1564.000000	2.046944	-0.151333	0.991885
1565.000000	2.045428	-0.151485	0.991885
1566.000000	2.043928	-0.152837	0.991885
1567.000000	2.042460	-0.144626	0.991885
1568.000000	2.041025	-0.155036	0.991885
1569.000000	2.039601	-0.135884	0.991885
1570.000000	2.038164	-0.125405	0.991885
1571.000000	2.036730	-0.158229	0.991885
1572.000000	2.035324	-0.139317	0.991885
1573.000000	2.033947	-0.139238	0.991885
1574.000000	2.032589	-0.139004	0.991885
1575.000000	2.031250	-0.147774	0.991885
1576.000000	2.029949	-0.156631	0.991885
1577.000000	2.028692	-0.135662	0.991885
1578.000000	2.027467	-0.137305	0.991885
1579.000000	2.026269	-0.127171	0.991885
1580.000000	2.025100	-0.140785	0.991885
1581.000000	2.023972	-0.130609	0.991885
1582.000000	2.022881	-0.132258	0.991885
1583.000000	2.021798	-0.126958	0.991885
1584.000000	2.020732	-0.138939	0.991885
1585.000000	2.019702	-0.144191	0.991885
1586.000000	2.018698	-0.118503	0.991885
1587.000000	2.017700	-0.127260	0.991885
1588.000000	2.016709	-0.125196	0.991885
1589.000000	2.015739	-0.125467	0.991885
1590.000000	2.014789	-0.124956	0.991885
1591.000000	2.013852	-0.111696	0.991885
1592.000000	2.012933	-0.126935	0.991885
1593.000000	2.012053	-0.138778	0.991885
1594.000000	2.011226	-0.127180	0.991885
1595.000000	2.010439	-0.127027	0.991885
1596.000000	2.009664	-0.131806	0.991885
1597.000000	2.008904	-0.111291	0.991885
1598.000000	2.008174	-0.113307	0.991885
1599.000000	2.007467	-0.109815	0.991885
1600.000000	2.006764	-0.135348	0.991885
1601.000000	2.006076	-0.106060	0.991885
1602.000000	2.005418	-0.127030	0.991885
1603.000000	2.004786	-0.111386	0.991885
1604.000000	2.004161	-0.100979	0.991885
1605.000000	2.003531	-0.121542	0.991885
1606.000000	2.002905	-0.107879	0.991885
1607.000000	2.002295	-0.109720	0.991885
1608.000000	2.001690	-0.102752	0.991885
1609.000000	2.001074	-0.120017	0.991885
1610.000000	2.000458	-0.126379	0.991885
1611.000000	1.999865	-0.121596	0.991885
1612.000000	1.999287	-0.111194	0.991885
1613.000000	1.998704	-0.095519	0.991885
1614.000000	1.998109	-0.104079	0.991885
1615.000000	1.997514	-0.112973	0.991885
1616.000000	1.996934	-0.102475	0.991885
1617.000000	1.996366	-0.094119	0.991885
1618.000000	1.995795	-0.119573	0.991885
1619.000000	1.995220	-0.100815	0.991885
1620.000000	1.994656	-0.087150	0.991885
1621.000000	1.994100	-0.111100	0.991885
1622.000000	1.993535	-0.092029	0.991885
1623.000000	1.992971	-0.105602	0.991885
1624.000000	1.992431	-0.090324	0.991885
1625.000000	1.991902	-0.097459	0.991885
1626.000000	1.991363	-0.103953	0.991885
1627.000000	1.990809	-0.100504	0.991885
1628.000000	1.990256	-0.095493	0.991885
1629.000000	1.989715	-0.091990	0.991885
1630.000000	1.989165	-0.084742	0.991885
1631.000000	1.988600	-0.107296	0.991885
1632.000000	1.988046	-0.086784	0.991885
1633.000000	1.987516	-0.107352	0.991885
1634.000000	1.986993	-0.093571	0.991885
1635.000000	1.986452	-0.083051	0.991885
1636.000000	1.985884	-0.089883	0.991885
1637.000000	1.985311	-0.100320	0.991885
1638.000000	1.984740	-0.083316	0.991885
1639.000000	1.984145	-0.081476	0.991885
1640.000000	1.983505	-0.082991	0.991885
1641.000000	1.982842	-0.091620	0.991885
1642.000000	1.982178	-0.081514	0.991885
1643.000000	1.981504	-0.084473	0.991885
1644.000000	1.980811	-0.087845	0.991885
1645.000000	1.980101	-0.098221	0.991885
1646.000000	1.979378	-0.086609	0.991885
1647.000000	1.978633	-0.070855	0.991885
1648.000000	1.977853	-0.085969	0.991885
1649.000000	1.977060	-0.092958	0.991885
1650.000000	1.976275	-0.094825	0.991885
1651.000000	1.975475	-0.105202	0.991885
1652.000000	1.974632	-0.087879	0.991885
1653.000000	1.973734	-0.106459	0.991885
1654.000000	1.972787	-0.099771	0.991885
1655.000000	1.971798	-0.087790	0.991885
1656.000000	1.970775	-0.094500	0.991885
1657.000000	1.969720	-0.084151	0.991885
1658.000000	1.968619	-0.089341	0.991885
1659.000000	1.967478	-0.091020	0.991885
1660.000000	1.966296	-0.084215	0.991885
1661.000000	1.965055	-0.078763	0.991885
1662.000000	1.963751	-0.080334	0.991885
1663.000000	1.962404	-0.102713	0.991885
1664.000000	1.961016	-0.067169	0.991885
1665.000000	1.959561	-0.082114	0.991885
1666.000000	1.958032	-0.078462	0.991885
1667.000000	1.956456	-0.088660	0.991885
1668.000000	1.954864	-0.088705	0.991885
1669.000000	1.953267	-0.097242	0.991885
1670.000000	1.951639	-0.088585	0.991885
1671.000000	1.949948	-0.074848	0.991885
1672.000000	1.948198	-0.093771	0.991885
1673.000000	1.946406	-0.092036	0.991885
1674.000000	1.944557	-0.073062	0.991885
1675.000000	1.942642	-0.078074	0.991885
1676.000000	1.940678	-0.084933	0.991885
1677.000000	1.938680	-0.083366	0.991885
1678.000000	1.936637	-0.084831	0.991885
1679.000000	1.934537	-0.095095	0.991885
1680.000000	1.932391	-0.087992	0.991885
1681.000000	1.930212	-0.086411	0.991885
1682.000000	1.927981	-0.089775	0.991885
1683.000000	1.925687	-0.094810	0.991885
1684.000000	1.923351	-0.086422	0.991885
1685.000000	1.921001	-0.088002	0.991885
1686.000000	1.918619	-0.084324	0.991885
1687.000000	1.916177	-0.080587	0.991885
1688.000000	1.913679	-0.080744	0.991885
1689.000000	1.911145	-0.092898	0.991885
1690.000000	1.908575	-0.096163	0.991885
1691.000000	1.905945	-0.080559	0.991885
1692.000000	1.903251	-0.087490	0.991885
1693.000000	1.900513	-0.099275	0.991885
1694.000000	1.897735	-0.085622	0.991885
1695.000000	1.894904	-0.090591	0.991885
1696.000000	1.892030	-0.097553	0.991885
1697.000000	1.889129	-0.081678	0.991885
1698.000000	1.886204	-0.093626	0.991885
1699.000000	1.883250	-0.114542	0.991885
1700.000000	1.880256	-0.093574	0.991885
1701.000000	1.877228	-0.089950	0.991885
1702.000000	1.874173	-0.100400	0.991885
1703.000000	1.871095	-0.083372	0.991885
1704.000000	1.867987	-0.088212	0.991885
1705.000000	1.864833	-0.079472	0.991885
1706.000000	1.861636	-0.096672	0.991885
1707.000000	1.858414	-0.081339	0.991885
1708.000000	1.855163	-0.086562	0.991885
1709.000000	1.851873	-0.076165	0.991885
1710.000000	1.848548	-0.094682	0.991885
1711.000000	1.845194	-0.086016	0.991885
1712.000000	1.841827	-0.084265	0.991885
1713.000000	1.838447	-0.086148	0.991885
1714.000000	1.835028	-0.080735	0.991885
1715.000000	1.831559	-0.082371	0.991885
1716.000000	1.828055	-0.075708	0.991885
1717.000000	1.824518	-0.077350	0.991885
1718.000000	1.820949	-0.071923	0.991885
1719.000000	1.817363	-0.078631	0.991885
1720.000000	1.813775	-0.099345	0.991885
1721.000000	1.810189	-0.073851	0.991885
1722.000000	1.806597	-0.080278	0.991885
1723.000000	1.802996	-0.069869	0.991885
1724.000000	1.799399	-0.073530	0.991885
1725.000000	1.795823	-0.095379	0.991885
1726.000000	1.792267	-0.049384	0.991885
1727.000000	1.788703	-0.083311	0.991885
1728.000000	1.785129	-0.093666	0.991885
1729.000000	1.781563	-0.073177	0.991885
1730.000000	1.777999	-0.064470	0.991885
1731.000000	1.774424	-0.072813	0.991885
1732.000000	1.770859	-0.081383	0.991885
1733.000000	1.767318	-0.057333	0.991885
1734.000000	1.763788	-0.064169	0.991885
1735.000000	1.760241	-0.058918	0.991885
1736.000000	1.756672	-0.057015	0.991885
1737.000000	1.753111	-0.058765	0.991885
1738.000000	1.749571	-0.063985	0.991885
1739.000000	1.746024	-0.051850	0.991885
1740.000000	1.742447	-0.063670	0.991885
1741.000000	1.738852	-0.068927	0.991885
1742.000000	1.735252	-0.039852	0.991885
1743.000000	1.731634	-0.049931	0.991885
1744.000000	1.727983	-0.041328	0.991885
1745.000000	1.724325	-0.047957	0.991885
1746.000000	1.720688	-0.056746	0.991885
1747.000000	1.717055	-0.034407	0.991885
1748.000000	1.713407	-0.044495	0.991885
1749.000000	1.709766	-0.066436	0.991885
1750.000000	1.706148	-0.051214	0.991885
1751.000000	1.702539	-0.039143	0.991885
1752.000000	1.698920	-0.057643	0.991885
1753.000000	1.695289	-0.026933	0.991885
1754.000000	1.691665	-0.031933	0.991885
1755.000000	1.688073	-0.054474	0.991885
1756.000000	1.684516	-0.035425	0.991885
1757.000000	1.680972	-0.038598	0.991885
1758.000000	1.677426	-0.038615	0.991885
1759.000000	1.673889	-0.035243	0.991885
1760.000000	1.670374	-0.028322	0.991885
1761.000000	1.666867	-0.004200	0.991885
1762.000000	1.663352	-0.041758	0.991885
1763.000000	1.659852	-0.024484	0.991885
1764.000000	1.656384	-0.000501	0.991885
1765.000000	1.652933	-0.024595	0.991885
1766.000000	1.649498	-0.015706	0.991885
1767.000000	1.646093	-0.022824	0.991885
1768.000000	1.642717	-0.014412	0.991885
1769.000000	1.639372	-0.005612	0.991885
1770.000000	1.636067	-0.010606	0.991885
1771.000000	1.632799	-0.019062	0.991885
1772.000000	1.629569	-0.008797	0.991885
1773.000000	1.626373	0.010159	0.991885
1774.000000	1.623195	0.012027	0.991885
1775.000000	1.620037	0.006689	0.991885
1776.000000	1.616923	-0.010422	0.991885
1777.000000	1.613859	0.001901	0.991885
1778.000000	1.610831	-0.008531	0.991885
1779.000000	1.607834	0.008923	0.991885
1780.000000	1.604874	-0.012061	0.991885
1781.000000	1.601959	0.001655	0.991885
1782.000000	1.599082	0.010717	0.991885
1783.000000	1.596223	0.012704	0.991885
1784.000000	1.593408	0.005324	0.991885
1785.000000	1.590659	0.007353	0.991885
1786.000000	1.587963	0.004046	0.991885
1787.000000	1.585323	-0.002802	0.991885
1788.000000	1.582750	-0.014727	0.991885
1789.000000	1.580255	-0.004620	0.991885
1790.000000	1.577837	0.012664	0.991885
1791.000000	1.575477	-0.000923	0.991885
1792.000000	1.573188	0.014619	0.991885
1793.000000	1.571008	-0.004262	0.991885
1794.000000	1.568959	-0.014516	0.991885
1795.000000	1.567033	-0.017965	0.991885
1796.000000	1.565222	-0.019670	0.991885
1797.000000	1.563544	-0.014695	0.991885
1798.000000	1.562033	-0.004517	0.991885
1799.000000	1.560686	-0.007788	0.991885
1800.000000	1.559492	-0.009415	0.991885
1801.000000	1.558463	0.004140	0.991885
1802.000000	1.557609	-0.006539	0.991885
1803.000000	1.556923	-0.007967	0.991885
1804.000000	1.556402	0.002709	0.991885
1805.000000	1.556052	-0.002600	0.991885
1806.000000	1.555881	-0.014765	0.991885
1807.000000	1.555881	-0.013481	0.991885
1808.000000	1.556027	0.000477	0.991885
1809.000000	1.556313	0.002423	0.991885
1810.000000	1.556738	-0.003011	0.991885
1811.000000	1.557296	-0.021790	0.991885
1812.000000	1.557986	-0.011489	0.991885
1813.000000	1.558807	-0.013090	0.991885
1814.000000	1.559762	-0.009734	0.991885
1815.000000	1.560860	0.007307	0.991885
1816.000000	1.562078	0.010749	0.991885
1817.000000	1.563392	-0.011385	0.991885
1818.000000	1.564807	-0.006321	0.991885
1819.000000	1.566321	-0.016820	0.991885
1820.000000	1.567909	0.003795	0.991885
1821.000000	1.569565	-0.004522	0.991885
1822.000000	1.571306	-0.006363	0.991885
1823.000000	1.573139	0.003874	0.991885
1824.000000	1.575045	0.002067	0.991885
1825.000000	1.576993	0.015792	0.991885
1826.000000	1.578973	-0.020129	0.991885
1827.000000	1.581003	-0.013067	0.991885
1828.000000	1.583093	-0.016807	0.991885
1829.000000	1.585222	-0.004908	0.991885
1830.000000	1.587369	-0.004428	0.991885
1831.000000	1.589548	-0.007795	0.991885
1832.000000	1.591775	-0.014949	0.991885
1833.000000	1.594048	-0.004631	0.991885
1834.000000	1.596355	-0.007953	0.991885
1835.000000	1.598669	-0.006239	0.991885
1836.000000	1.600977	0.000345	0.991885
1837.000000	1.603279	-0.028705	0.991885
1838.000000	1.605566	-0.001138	0.991885
1839.000000	1.607825	-0.003018	0.991885
1840.000000	1.610063	-0.003042	0.991885
1841.000000	1.612300	-0.020086	0.991885
1842.000000	1.614519	-0.023447	0.991885
1843.000000	1.616694	-0.023255	0.991885
1844.000000	1.618829	-0.019737	0.991885
1845.000000	1.620937	-0.014813	0.991885
1846.000000	1.623016	-0.013153	0.991885
1847.000000	1.625063	-0.018144	0.991885
1848.000000	1.627079	-0.021515	0.991885
1849.000000	1.629064	-0.037176	0.991885
1850.000000	1.631032	-0.016226	0.991885
1851.000000	1.632972	0.002263	0.991885
1852.000000	1.634852	-0.025068	0.991885
1853.000000	1.636661	-0.036860	0.991885
1854.000000	1.638403	-0.037234	0.991885
1855.000000	1.640075	-0.025139	0.991885
1856.000000	1.641668	-0.012808	0.991885
1857.000000	1.643184	-0.001002	0.991885
1858.000000	1.644645	-0.028370	0.991885
1859.000000	1.646063	-0.025263	0.991885
1860.000000	1.647438	-0.026863	0.991885
1861.000000	1.648762	-0.031500	0.991885
1862.000000	1.650039	-0.029922	0.991885
1863.000000	1.651279	-0.038624	0.991885
1864.000000	1.652475	-0.043775	0.991885
1865.000000	1.653620	-0.038488	0.991885
1866.000000	1.654724	-0.046967	0.991885
1867.000000	1.655794	-0.050402	0.991885
1868.000000	1.656818	-0.045548	0.991885
1869.000000	1.657774	-0.052107	0.991885
1870.000000	1.658672	-0.043589	0.991885
1871.000000	1.659531	-0.043616	0.991885
1872.000000	1.660346	-0.045499	0.991885
1873.000000	1.661117	-0.055433	0.991885
1874.000000	1.661868	-0.060748	0.991885
1875.000000	1.662611	-0.062453	0.991885
1876.000000	1.663327	-0.058911	0.991885
1877.000000	1.663993	-0.054036	0.991885
1878.000000	1.664604	-0.082666	0.991885
1879.000000	1.665181	-0.079596	0.991885
1880.000000	1.665714	-0.038578	0.991885
1881.000000	1.666176	-0.052047	0.991885
1882.000000	1.666570	-0.053566	0.991885
1883.000000	1.666922	-0.086009	0.991885
1884.000000	1.667248	-0.063933	0.991885
1885.000000	1.667536	-0.091333	0.991885
1886.000000	1.667770	-0.074329	0.991885
1887.000000	1.667959	-0.100000	0.991885
1888.000000	1.668123	-0.075903	0.991885
1889.000000	1.668260	-0.074173	0.991885
1890.000000	1.668347	-0.084169	0.991885
1891.000000	1.668388	-0.077442	0.991885
1892.000000	1.668405	-0.079226	0.991885
1893.000000	1.668397	-0.075755	0.991885
1894.000000	1.668358	-0.074053	0.991885
1895.000000	1.668295	-0.089143	0.991885
1896.000000	1.668220	-0.106667	0.991885
1897.000000	1.668142	-0.109923	0.991885
1898.000000	1.668042	-0.085818	0.991885
1899.000000	1.667903	-0.094278	0.991885
1900.000000	1.667739	-0.097831	0.991885
1901.000000	1.667571	-0.096209	0.991885
1902.000000	1.667388	-0.099674	0.991885
1903.000000	1.667149	-0.094196	0.991885
1904.000000	1.666854	-0.107696	0.991885
1905.000000	1.666539	-0.101059	0.991885
1906.000000	1.666216	-0.101586	0.991885
1907.000000	1.665868	-0.089116	0.991885
1908.000000	1.665486	-0.118207	0.991885
1909.000000	1.665074	-0.116310	0.991885
1910.000000	1.664648	-0.134013	0.991885
1911.000000	1.664212	-0.102915	0.991885
1912.000000	1.663746	-0.112880	0.991885
1913.000000	1.663243	-0.114717	0.991885
1914.000000	1.662714	-0.111371	0.991885
1915.000000	1.662169	-0.119850	0.991885
1916.000000	1.661603	-0.099352	0.991885
1917.000000	1.661016	-0.114466	0.991885
1918.000000	1.660441	-0.137323	0.991885
1919.000000	1.659893	-0.119803	0.991885
1920.000000	1.659348	-0.118165	0.991885
1921.000000	1.658773	-0.112817	0.991885
1922.000000	1.658172	-0.119700	0.991885
1923.000000	1.657557	-0.128259	0.991885
1924.000000	1.656915	-0.123269	0.991885
1925.000000	1.656250	-0.124716	0.991885
1926.000000	1.655576	-0.117826	0.991885
1927.000000	1.654892	-0.133405	0.991885
1928.000000	1.654191	-0.135020	0.991885
1929.000000	1.653456	-0.126323	0.991885
1930.000000	1.652692	-0.126189	0.991885
1931.000000	1.651917	-0.143475	0.991885
1932.000000	1.651149	-0.140244	0.991885
1933.000000	1.650394	-0.131405	0.991885
1934.000000	1.649635	-0.139895	0.991885
1935.000000	1.648857	-0.129501	0.991885
1936.000000	1.648076	-0.117837	0.991885
1937.000000	1.647299	-0.135077	0.991885
1938.000000	1.646519	-0.150302	0.991885
1939.000000	1.645736	-0.122686	0.991885
1940.000000	1.644963	-0.138256	0.991885
1941.000000	1.644216	-0.148524	0.991885
1942.000000	1.643479	-0.131589	0.991885
1943.000000	1.642730	-0.146660	0.991885
1944.000000	1.641981	-0.153353	0.991885
1945.000000	1.641251	-0.134865	0.991885
1946.000000	1.640535	-0.139811	0.991885
1947.000000	1.639817	-0.132960	0.991885
1948.000000	1.639092	-0.156926	0.991885
1949.000000	1.638378	-0.153467	0.991885
1950.000000	1.637682	-0.141780	0.991885
1951.000000	1.636982	-0.155122	0.991885
1952.000000	1.636268	-0.156822	0.991885
1953.000000	1.635562	-0.149888	0.991885
1954.000000	1.634865	-0.151688	0.991885
1955.000000	1.634156	-0.136260	0.991885
1956.000000	1.633428	-0.167198	0.991885
1957.000000	1.632689	-0.142980	0.991885
1958.000000	1.631960	-0.143348	0.991885
1959.000000	1.631242	-0.141462	0.991885
1960.000000	1.630527	-0.160223	0.991885
1961.000000	1.629826	-0.132716	0.991885
1962.000000	1.629152	-0.156880	0.991885
1963.000000	1.628500	-0.146763	0.991885
1964.000000	1.627844	-0.148375	0.991885
1965.000000	1.627178	-0.139679	0.991885
1966.000000	1.626523	-0.151728	0.991885
1967.000000	1.625895	-0.146635	0.991885
1968.000000	1.625273	-0.127568	0.991885
1969.000000	1.624652	-0.166732	0.991885
1970.000000	1.624057	-0.165133	0.991885
1971.000000	1.623489	-0.132866	0.991885
1972.000000	1.622919	-0.163720	0.991885
1973.000000	1.622342	-0.143057	0.991885
1974.000000	1.621783	-0.139757	0.991885
1975.000000	1.621250	-0.146532	0.991885
1976.000000	1.620730	-0.146552	0.991885
1977.000000	1.620226	-0.148116	0.991885
1978.000000	1.619766	-0.151809	0.991885
1979.000000	1.619361	-0.136626	0.991885
1980.000000	1.619003	-0.160445	0.991885
1981.000000	1.618691	-0.141425	0.991885
1982.000000	1.618436	-0.155394	0.991885
1983.000000	1.618257	-0.134987	0.991885
1984.000000	1.618153	-0.144984	0.991885
1985.000000	1.618124	-0.162333	0.991885
1986.000000	1.618196	-0.140360	0.991885
1987.000000	1.618385	-0.145346	0.991885
1988.000000	1.618674	-0.143751	0.991885
1989.000000	1.619034	-0.128261	0.991885
1990.000000	1.619480	-0.126838	0.991885
1991.000000	1.620040	-0.121749	0.991885
1992.000000	1.620708	-0.128717	0.991885
1993.000000	1.621465	-0.128744	0.991885
1994.000000	1.622321	-0.118754	0.991885
1995.000000	1.623295	-0.127256	0.991885
1996.000000	1.624379	-0.137444	0.991885
1997.000000	1.625550	-0.130456	0.991885
1998.000000	1.626803	-0.123602	0.991885
1999.000000	1.628164	-0.122213	0.991885
2000.000000	1.629637	-0.125821	0.991885
2001.000000	1.631189	-0.122292	0.991885
2002.000000	1.632797	-0.108614	0.991885
2003.000000	1.634476	-0.120510	0.991885
2004.000000	1.636248	-0.120590	0.991885
2005.000000	1.638114	-0.108791	0.991885
2006.000000	1.640050	-0.100296	0.991885
2007.000000	1.642041	-0.122706	0.991885
2008.000000	1.644100	-0.109277	0.991885
2009.000000	1.646214	-0.115941	0.991885
2010.000000	1.648364	-0.112446	0.991885
2011.000000	1.650558	-0.110788	0.991885
2012.000000	1.652809	-0.129645	0.991885
2013.000000	1.655102	-0.094065	0.991885
2014.000000	1.657410	-0.095278	0.991885
2015.000000	1.659742	-0.109353	0.991885
2016.000000	1.662112	-0.106008	0.991885
2017.000000	1.664512	-0.109392	0.991885
2018.000000	1.666933	-0.090473	0.991885
2019.000000	1.669371	-0.100903	0.991885
2020.000000	1.671838	-0.090380	0.991885
2021.000000	1.674326	-0.102926	0.991885
2022.000000	1.676785	-0.084041	0.991885
2023.000000	1.679216	-0.101034	0.991885
2024.000000	1.681663	-0.087410	0.991885
2025.000000	1.684125	-0.097744	0.991885
2026.000000	1.686574	-0.080537	0.991885
2027.000000	1.689003	-0.094153	0.991885
2028.000000	1.691432	-0.099581	0.991885
2029.000000	1.693860	-0.087679	0.991885
2030.000000	1.696247	-0.086075	0.991885
2031.000000	1.698586	-0.080866	0.991885
2032.000000	1.700894	-0.080705	0.991885
2033.000000	1.703182	-0.099850	0.991885
2034.000000	1.705445	-0.067287	0.991885
2035.000000	1.707673	-0.079296	0.991885
2036.000000	1.709874	-0.087878	0.991885
2037.000000	1.712071	-0.086265	0.991885
2038.000000	1.714275	-0.074280	0.991885
2039.000000	1.716480	-0.086096	0.991885
2040.000000	1.718685	-0.085906	0.991885
2041.000000	1.720902	-0.096438	0.991885
2042.000000	1.723131	-0.086410	0.991885
2043.000000	1.725332	-0.089596	0.991885
2044.000000	1.727491	-0.080885	0.991885
2045.000000	1.729631	-0.093011	0.991885
2046.000000	1.731771	-0.087967	0.991885
2047.000000	1.733902	-0.100043	0.991885
2048.000000	1.736008	-0.101824	0.991885
2049.000000	1.738089	-0.089336	0.991885
2050.000000	1.740160	-0.089847	0.991885
2051.000000	1.742223	-0.098301	0.991885
2052.000000	1.744264	-0.105104	0.991885
2053.000000	1.746283	-0.104871	0.991885
2054.000000	1.748294	-0.108500	0.991885
2055.000000	1.750301	-0.093217	0.991885
2056.000000	1.752286	-0.110401	0.991885
2057.000000	1.754218	-0.103282	0.991885
2058.000000	1.756112	-0.120658	0.991885
2059.000000	1.757996	-0.118876	0.991885
2060.000000	1.759871	-0.101748	0.991885
2061.000000	1.761727	-0.124010	0.991885
2062.000000	1.763559	-0.117015	0.991885
2063.000000	1.765370	-0.093202	0.991885
2064.000000	1.767166	-0.117280	0.991885
2065.000000	1.768934	-0.110022	0.991885
2066.000000	1.770671	-0.138889	0.991885
2067.000000	1.772382	-0.115398	0.991885
2068.000000	1.774050	-0.113927	0.991885
2069.000000	1.775660	-0.122179	0.991885
2070.000000	1.777209	-0.135961	0.991885
2071.000000	1.778708	-0.117162	0.991885
2072.000000	1.780156	-0.108863	0.991885
2073.000000	1.781540	-0.118831	0.991885
2074.000000	1.782862	-0.137517	0.991885
2075.000000	1.784133	-0.130868	0.991885
2076.000000	1.785353	-0.130850	0.991885
2077.000000	1.786516	-0.117148	0.991885
2078.000000	1.787614	-0.139073	0.991885
2079.000000	1.788656	-0.125559	0.991885
2080.000000	1.789665	-0.142718	0.991885
2081.000000	1.790651	-0.151396	0.991885
2082.000000	1.791601	-0.127489	0.991885
2083.000000	1.792484	-0.140831	0.991885
2084.000000	1.793302	-0.149685	0.991885
2085.000000	1.794064	-0.154544	0.991885
2086.000000	1.794772	-0.140924	0.991885
2087.000000	1.795423	-0.144153	0.991885
2088.000000	1.796012	-0.144334	0.991885
2089.000000	1.796545	-0.148086	0.991885
2090.000000	1.797015	-0.170058	0.991885
2091.000000	1.797419	-0.151071	0.991885
2092.000000	1.797779	-0.164562	0.991885
2093.000000	1.798108	-0.164587	0.991885
2094.000000	1.798399	-0.161489	0.991885
2095.000000	1.798628	-0.145913	0.991885
2096.000000	1.798784	-0.147760	0.991885
2097.000000	1.798874	-0.159540	0.991885
2098.000000	1.798907	-0.161298	0.991885
2099.000000	1.798878	-0.151173	0.991885
2100.000000	1.798778	-0.154512	0.991885
2101.000000	1.798612	-0.171411	0.991885
2102.000000	1.798406	-0.166362	0.991885
2103.000000	1.798171	-0.156084	0.991885
2104.000000	1.797894	-0.147546	0.991885
2105.000000	1.797576	-0.152617	0.991885
2106.000000	1.797240	-0.179826	0.991885
2107.000000	1.796905	-0.157864	0.991885
2108.000000	1.796556	-0.166397	0.991885
2109.000000	1.796154	-0.140357	0.991885
2110.000000	1.795700	-0.167905	0.991885
2111.000000	1.795231	-0.164447	0.991885
2112.000000	1.794752	-0.174965	0.991885
2113.000000	1.794236	-0.171324	0.991885
2114.000000	1.793658	-0.167632	0.991885
2115.000000	1.793026	-0.171116	0.991885
2116.000000	1.792377	-0.176270	0.991885
2117.000000	1.791724	-0.176048	0.991885
2118.000000	1.791049	-0.170946	0.991885
2119.000000	1.790335	-0.193398	0.991885
2120.000000	1.789588	-0.174706	0.991885
2121.000000	1.788814	-0.176195	0.991885
2122.000000	1.787995	-0.167300	0.991885
2123.000000	1.787132	-0.187858	0.991885
2124.000000	1.786258	-0.189671	0.991885
2125.000000	1.785380	-0.176057	0.991885
2126.000000	1.784472	-0.172629	0.991885
2127.000000	1.783507	-0.166935	0.991885
2128.000000	1.782497	-0.170395	0.991885
2129.000000	1.781464	-0.191324	0.991885
2130.000000	1.780398	-0.175778	0.991885
2131.000000	1.779278	-0.184146	0.991885
2132.000000	1.778107	-0.175523	0.991885
2133.000000	1.776904	-0.180932	0.991885
2134.000000	1.775660	-0.177247	0.991885
2135.000000	1.774346	-0.185602	0.991885
2136.000000	1.772975	-0.194175	0.991885
2137.000000	1.771575	-0.192381	0.991885
2138.000000	1.770156	-0.185646	0.991885
2139.000000	1.768708	-0.183847	0.991885
2140.000000	1.767220	-0.187182	0.991885
2141.000000	1.765695	-0.204277	0.991885
2142.000000	1.764141	-0.190699	0.991885
2143.000000	1.762553	-0.195506	0.991885
2144.000000	1.760931	-0.197067	0.991885
2145.000000	1.759291	-0.202317	0.991885
2146.000000	1.757654	-0.205772	0.991885
2147.000000	1.756009	-0.185498	0.991885
2148.000000	1.754326	-0.215668	0.991885
2149.000000	1.752617	-0.202133	0.991885
2150.000000	1.750900	-0.222799	0.991885
2151.000000	1.749167	-0.178246	0.991885
2152.000000	1.747407	-0.200367	0.991885
2153.000000	1.745628	-0.200201	0.991885
2154.000000	1.743835	-0.200262	0.991885
2155.000000	1.742000	-0.188211	0.991885
2156.000000	1.740095	-0.187653	0.991885
2157.000000	1.738151	-0.203311	0.991885
2158.000000	1.736212	-0.213548	0.991885
2159.000000	1.734283	-0.208773	0.991885
2160.000000	1.732342	-0.204840	0.991885
2161.000000	1.730373	-0.197950	0.991885
2162.000000	1.728388	-0.196285	0.991885
2163.000000	1.726400	-0.196228	0.991885
2164.000000	1.724396	-0.208170	0.991885
2165.000000	1.722370	-0.185782	0.991885
2166.000000	1.720330	-0.214615	0.991885
2167.000000	1.718285	-0.199443	0.991885
2168.000000	1.716232	-0.197601	0.991885
2169.000000	1.714152	-0.209196	0.991885
2170.000000	1.712060	-0.211074	0.991885
2171.000000	1.709978	-0.197529	0.991885
2172.000000	1.707892	-0.214558	0.991885
2173.000000	1.705774	-0.202246	0.991885
2174.000000	1.703620	-0.183104	0.991885
2175.000000	1.701447	-0.200556	0.991885
2176.000000	1.699255	-0.202346	0.991885
2177.000000	1.697020	-0.208893	0.991885
2178.000000	1.694760	-0.213742	0.991885
2179.000000	1.692512	-0.215709	0.991885
2180.000000	1.690267	-0.196738	0.991885
2181.000000	1.688006	-0.222351	0.991885
2182.000000	1.685735	-0.206931	0.991885
2183.000000	1.683457	-0.201788	0.991885
2184.000000	1.681152	-0.206746	0.991885
2185.000000	1.678793	-0.208154	0.991885
2186.000000	1.676390	-0.208043	0.991885
2187.000000	1.673966	-0.201144	0.991885
2188.000000	1.671531	-0.201213	0.991885
2189.000000	1.669081	-0.206169	0.991885
2190.000000	1.666604	-0.216473	0.991885
2191.000000	1.664096	-0.209372	0.991885
2192.000000	1.661555	-0.204139	0.991885
2193.000000	1.658969	-0.196926	0.991885
2194.000000	1.656332	-0.220952	0.991885
2195.000000	1.653655	-0.214275	0.991885
2196.000000	1.650948	-0.222860	0.991885
2197.000000	1.648201	-0.205456	0.991885
2198.000000	1.645398	-0.212210	0.991885
2199.000000	1.642540	-0.229346	0.991885
2200.000000	1.639637	-0.225827	0.991885
2201.000000	1.636685	-0.208411	0.991885
2202.000000	1.633683	-0.237576	0.991885
2203.000000	1.630665	-0.230495	0.991885
2204.000000	1.627647	-0.232420	0.991885
2205.000000	1.624596	-0.215225	0.991885
2206.000000	1.621481	-0.225121	0.991885
2207.000000	1.618320	-0.213142	0.991885
2208.000000	1.615140	-0.232014	0.991885
2209.000000	1.611942	-0.228470	0.991885
2210.000000	1.608706	-0.209507	0.991885
2211.000000	1.605436	-0.236706	0.991885
2212.000000	1.602149	-0.235297	0.991885
2213.000000	1.598836	-0.214412	0.991885
2214.000000	1.595493	-0.229661	0.991885
2215.000000	1.592139	-0.225917	0.991885
2216.000000	1.588798	-0.231257	0.991885
2217.000000	1.585484	-0.236430	0.991885
2218.000000	1.582181	-0.219231	0.991885
2219.000000	1.578858	-0.237916	0.991885
2220.000000	1.575515	-0.227623	0.991885
2221.000000	1.572186	-0.234232	0.991885
2222.000000	1.568885	-0.232644	0.991885
2223.000000	1.565608	-0.261548	0.991885
2224.000000	1.562357	-0.235821	0.991885
2225.000000	1.559135	-0.227415	0.991885
2226.000000	1.555935	-0.216530	0.991885
2227.000000	1.552754	-0.230260	0.991885
2228.000000	1.549594	-0.238933	0.991885
2229.000000	1.546467	-0.240662	0.991885
2230.000000	1.543376	-0.221931	0.991885
2231.000000	1.540303	-0.220010	0.991885
2232.000000	1.537244	-0.243883	0.991885
2233.000000	1.534220	-0.231604	0.991885
2234.000000	1.531254	-0.231589	0.991885
2235.000000	1.528342	-0.253927	0.991885
2236.000000	1.525471	-0.257260	0.991885
2237.000000	1.522641	-0.241795	0.991885
2238.000000	1.519864	-0.246793	0.991885
2239.000000	1.517143	-0.253528	0.991885
2240.000000	1.514450	-0.236324	0.991885
2241.000000	1.511761	-0.248104	0.991885
2242.000000	1.509082	-0.246527	0.991885
2243.000000	1.506409	-0.241360	0.991885
2244.000000	1.503729	-0.253231	0.991885
2245.000000	1.501040	-0.253031	0.991885
2246.000000	1.498372	-0.251304	0.991885
2247.000000	1.495734	-0.256412	0.991885
2248.000000	1.493092	-0.244253	0.991885
2249.000000	1.490431	-0.252748	0.991885
2250.000000	1.487772	-0.262781	0.991885
2251.000000	1.485144	-0.254428	0.991885
2252.000000	1.482541	-0.267971	0.991885
2253.000000	1.479938	-0.247164	0.991885
2254.000000	1.477319	-0.269445	0.991885
2255.000000	1.474691	-0.257335	0.991885
2256.000000	1.472056	-0.251096	0.991885
2257.000000	1.469399	-0.255450	0.991885
2258.000000	1.466714	-0.257021	0.991885
2259.000000	1.464006	-0.257243	0.991885
2260.000000	1.461287	-0.282633	0.991885
2261.000000	1.458559	-0.256662	0.991885
2262.000000	1.455818	-0.265347	0.991885
2263.000000	1.453079	-0.273654	0.991885
2264.000000	1.450339	-0.275494	0.991885
2265.000000	1.447575	-0.273708	0.991885
2266.000000	1.444780	-0.254597	0.991885
2267.000000	1.441984	-0.283442	0.991885
2268.000000	1.439220	-0.278388	0.991885
2269.000000	1.436487	-0.283617	0.991885
2270.000000	1.433750	-0.285142	0.991885
2271.000000	1.430988	-0.271294	0.991885
2272.000000	1.428206	-0.284880	0.991885
2273.000000	1.425419	-0.288312	0.991885
2274.000000	1.422623	-0.279651	0.991885
2275.000000	1.419813	-0.299891	0.991885
2276.000000	1.416998	-0.298132	0.991885
2277.000000	1.414187	-0.298361	0.991885
2278.000000	1.411368	-0.299774	0.991885
2279.000000	1.408524	-0.301534	0.991885
2280.000000	1.405659	-0.302866	0.991885
2281.000000	1.402794	-0.326986	0.991885
2282.000000	1.399938	-0.308096	0.991885
2283.000000	1.397064	-0.301169	0.991885
2284.000000	1.394144	-0.312881	0.991885
2285.000000	1.391200	-0.326569	0.991885
2286.000000	1.388264	-0.318042	0.991885
2287.000000	1.385337	-0.321226	0.991885
2288.000000	1.382408	-0.346723	0.991885
2289.000000	1.379471	-0.322775	0.991885
2290.000000	1.376521	-0.324597	0.991885
2291.000000	1.373553	-0.322683	0.991885
2292.000000	1.370572	-0.342893	0.991885
2293.000000	1.367585	-0.344602	0.991885
2294.000000	1.364600	-0.346227	0.991885
2295.000000	1.361613	-0.337901	0.991885
2296.000000	1.358608	-0.337579	0.991885
2297.000000	1.355580	-0.363371	0.991885
2298.000000	1.352548	-0.361183	0.991885
2299.000000	1.349516	-0.325795	0.991885
2300.000000	1.346462	-0.356138	0.991885
2301.000000	1.343381	-0.374992	0.991885
2302.000000	1.340288	-0.355987	0.991885
2303.000000	1.337178	-0.347435	0.991885
2304.000000	1.334038	-0.367756	0.991885
2305.000000	1.330866	-0.369206	0.991885
2306.000000	1.327673	-0.362285	0.991885
2307.000000	1.324487	-0.376091	0.991885
2308.000000	1.321306	-0.365971	0.991885
2309.000000	1.318108	-0.365387	0.991885
2310.000000	1.314900	-0.360017	0.991885
2311.000000	1.311696	-0.379207	0.991885
2312.000000	1.308498	-0.375602	0.991885
2313.000000	1.305300	-0.373546	0.991885
2314.000000	1.302101	-0.395838	0.991885
2315.000000	1.298904	-0.377086	0.991885
2316.000000	1.295704	-0.372073	0.991885
2317.000000	1.292499	-0.390577	0.991885
2318.000000	1.289289	-0.378325	0.991885
2319.000000	1.286081	-0.390099	0.991885
2320.000000	1.282887	-0.390081	0.991885
2321.000000	1.279706	-0.391915	0.991885
2322.000000	1.276513	-0.394920	0.991885
2323.000000	1.273285	-0.410134	0.991885
2324.000000	1.270020	-0.404919	0.991885
2325.000000	1.266734	-0.392963	0.991885
2326.000000	1.263420	-0.411756	0.991885
2327.000000	1.260056	-0.408161	0.991885
2328.000000	1.256640	-0.414606	0.991885
2329.000000	1.253186	-0.417966	0.991885
2330.000000	1.249690	-0.419577	0.991885
2331.000000	1.246140	-0.417883	0.991885
2332.000000	1.242547	-0.420702	0.991885
2333.000000	1.238933	-0.432757	0.991885
2334.000000	1.235296	-0.405583	0.991885
2335.000000	1.231612	-0.429209	0.991885
2336.000000	1.227866	-0.427249	0.991885
2337.000000	1.224089	-0.429021	0.991885
2338.000000	1.220305	-0.420402	0.991885
2339.000000	1.216503	-0.435823	0.991885
2340.000000	1.212673	-0.422098	0.991885
2341.000000	1.208834	-0.425159	0.991885
2342.000000	1.205024	-0.440867	0.991885
2343.000000	1.201273	-0.433861	0.991885
2344.000000	1.197581	-0.426919	0.991885
2345.000000	1.193956	-0.425346	0.991885
2346.000000	1.190434	-0.423732	0.991885
2347.000000	1.187045	-0.434359	0.991885
2348.000000	1.183806	-0.409790	0.991885
2349.000000	1.180717	-0.421798	0.991885
2350.000000	1.177793	-0.428762	0.991885
2351.000000	1.175060	-0.427249	0.991885
2352.000000	1.172513	-0.398383	0.991885
2353.000000	1.170132	-0.423879	0.991885
2354.000000	1.167913	-0.411919	0.991885
2355.000000	1.165859	-0.422526	0.991885
2356.000000	1.163963	-0.405305	0.991885
2357.000000	1.162214	-0.422195	0.991885
2358.000000	1.160625	-0.401651	0.991885
2359.000000	1.159210	-0.408887	0.991885
2360.000000	1.157952	-0.386639	0.991885
2361.000000	1.156834	-0.403519	0.991885
2362.000000	1.155856	-0.389728	0.991885
2363.000000	1.155017	-0.393484	0.991885
2364.000000	1.154320	-0.391834	0.991885
2365.000000	1.153767	-0.396654	0.991885
2366.000000	1.153334	-0.382989	0.991885
2367.000000	1.153009	-0.379721	0.991885
2368.000000	1.152795	-0.371624	0.991885
2369.000000	1.152673	-0.393452	0.991885
2370.000000	1.152625	-0.383156	0.991885
2371.000000	1.152652	-0.383182	0.991885
2372.000000	1.152763	-0.371294	0.991885
2373.000000	1.152963	-0.368142	0.991885
2374.000000	1.153237	-0.369740	0.991885
2375.000000	1.153551	-0.374703	0.991885
2376.000000	1.153887	-0.381620	0.991885
2377.000000	1.154263	-0.359419	0.991885
2378.000000	1.154682	-0.352478	0.991885
2379.000000	1.155134	-0.374717	0.991885
2380.000000	1.155614	-0.362716	0.991885
2381.000000	1.156115	-0.352792	0.991885
2382.000000	1.156622	-0.345842	0.991885
2383.000000	1.157124	-0.369650	0.991885
2384.000000	1.157627	-0.354564	0.991885
2385.000000	1.158150	-0.347638	0.991885
2386.000000	1.158673	-0.339084	0.991885
2387.000000	1.159170	-0.352758	0.991885
2388.000000	1.159661	-0.345942	0.991885
2389.000000	1.160182	-0.347923	0.991885
2390.000000	1.160734	-0.320542	0.991885
2391.000000	1.161291	-0.330509	0.991885
2392.000000	1.161858	-0.344488	0.991885
2393.000000	1.162464	-0.322244	0.991885
2394.000000	1.163109	-0.325918	0.991885
2395.000000	1.163773	-0.325553	0.991885
2396.000000	1.164454	-0.325604	0.991885
2397.000000	1.165162	-0.327734	0.991885
2398.000000	1.165886	-0.312039	0.991885
2399.000000	1.166612	-0.318765	0.991885
2400.000000	1.167349	-0.308709	0.991885
2401.000000	1.168111	-0.317292	0.991885
2402.000000	1.168898	-0.303878	0.991885
2403.000000	1.169696	-0.317444	0.991885
2404.000000	1.170505	-0.307296	0.991885
2405.000000	1.171338	-0.305979	0.991885
2406.000000	1.172206	-0.281989	0.991885
2407.000000	1.173084	-0.269535	0.991885
2408.000000	1.173947	-0.285003	0.991885
2409.000000	1.174813	-0.304325	0.991885
2410.000000	1.175706	-0.271705	0.991885
2411.000000	1.176609	-0.282059	0.991885
2412.000000	1.177511	-0.281914	0.991885
2413.000000	1.178439	-0.280198	0.991885
2414.000000	1.179419	-0.285421	0.991885
2415.000000	1.180447	-0.271673	0.991885
2416.000000	1.181480	-0.256363	0.991885
2417.000000	1.182489	-0.280447	0.991885
2418.000000	1.183486	-0.258381	0.991885
2419.000000	1.184487	-0.249612	0.991885
2420.000000	1.185485	-0.268539	0.991885
2421.000000	1.186486	-0.265248	0.991885
2422.000000	1.187510	-0.251382	0.991885
2423.000000	1.188543	-0.249879	0.991885
2424.000000	1.189548	-0.234478	0.991885
2425.000000	1.190510	-0.249687	0.991885
2426.000000	1.191453	-0.265500	0.991885
2427.000000	1.192404	-0.239638	0.991885
2428.000000	1.193352	-0.220860	0.991885
2429.000000	1.194263	-0.220863	0.991885
2430.000000	1.195133	-0.239611	0.991885
2431.000000	1.195980	-0.224503	0.991885
2432.000000	1.196811	-0.209051	0.991885
2433.000000	1.197623	-0.212506	0.991885
2434.000000	1.198420	-0.225870	0.991885
2435.000000	1.199201	-0.210736	0.991885
2436.000000	1.199960	-0.197248	0.991885
2437.000000	1.200692	-0.193679	0.991885
2438.000000	1.201377	-0.195346	0.991885
2439.000000	1.202013	-0.214296	0.991885
2440.000000	1.202622	-0.199033	0.991885
2441.000000	1.203207	-0.211099	0.991885
2442.000000	1.203758	-0.181855	0.991885
2443.000000	1.204275	-0.202213	0.991885
2444.000000	1.204783	-0.194098	0.991885
2445.000000	1.205290	-0.196206	0.991885
2446.000000	1.205773	-0.187023	0.991885
2447.000000	1.206209	-0.183674	0.991885
2448.000000	1.206620	-0.200598	0.991885
2449.000000	1.207031	-0.178912	0.991885
2450.000000	1.207429	-0.161499	0.991885
2451.000000	1.207798	-0.178440	0.991885
2452.000000	1.208160	-0.202423	0.991885
2453.000000	1.208539	-0.187290	0.991885
2454.000000	1.208922	-0.183917	0.991885
2455.000000	1.209289	-0.176632	0.991885
2456.000000	1.209645	-0.181872	0.991885
2457.000000	1.210004	-0.171757	0.991885
2458.000000	1.210360	-0.168130	0.991885
2459.000000	1.210687	-0.168180	0.991885
2460.000000	1.210988	-0.180286	0.991885
2461.000000	1.211293	-0.199294	0.991885
2462.000000	1.211595	-0.166637	0.991885
2463.000000	1.211875	-0.180489	0.991885
2464.000000	1.212141	-0.152776	0.991885
2465.000000	1.212407	-0.188707	0.991885
2466.000000	1.212659	-0.187198	0.991885
2467.000000	1.212882	-0.180167	0.991885
2468.000000	1.213093	-0.195462	0.991885
2469.000000	1.213311	-0.192255	0.991885
2470.000000	1.213519	-0.180390	0.991885
2471.000000	1.213688	-0.187259	0.991885
2472.000000	1.213816	-0.181877	0.991885
2473.000000	1.213930	-0.185382	0.991885
2474.000000	1.214038	-0.178574	0.991885
2475.000000	1.214112	-0.176797	0.991885
2476.000000	1.214136	-0.183510	0.991885
2477.000000	1.214107	-0.180279	0.991885
2478.000000	1.214026	-0.188968	0.991885
2479.000000	1.213895	-0.182300	0.991885
2480.000000	1.213709	-0.171612	0.991885
2481.000000	1.213483	-0.195248	0.991885
2482.000000	1.213244	-0.197413	0.991885
2483.000000	1.212997	-0.181976	0.991885
2484.000000	1.212728	-0.164749	0.991885
2485.000000	1.212413	-0.180066	0.991885
2486.000000	1.212047	-0.193768	0.991885
2487.000000	1.211641	-0.183559	0.991885
2488.000000	1.211191	-0.193698	0.991885
2489.000000	1.210693	-0.179938	0.991885
2490.000000	1.210160	-0.193806	0.991885
2491.000000	1.209610	-0.188710	0.991885
2492.000000	1.209049	-0.205764	0.991885
2493.000000	1.208452	-0.185197	0.991885
2494.000000	1.207812	-0.205459	0.991885
2495.000000	1.207160	-0.200593	0.991885
2496.000000	1.206499	-0.202362	0.991885
2497.000000	1.205802	-0.186722	0.991885
2498.000000	1.205057	-0.200201	0.991885
2499.000000	1.204280	-0.210372	0.991885
2500.000000	1.203499	-0.200262	0.991885
2501.000000	1.202711	-0.181617	0.991885
2502.000000	1.201884	-0.198663	0.991885
2503.000000	1.201001	-0.179430	0.991885
2504.000000	1.200074	-0.215753	0.991885
2505.000000	1.199123	-0.198371	0.991885
2506.000000	1.198146	-0.188229	0.991885
2507.000000	1.197116	-0.187973	0.991885
2508.000000	1.196047	-0.215492	0.991885
2509.000000	1.194969	-0.200294	0.991885
2510.000000	1.193861	-0.193146	0.991885
2511.000000	1.192683	-0.203328	0.991885
2512.000000	1.191447	-0.194484	0.991885
2513.000000	1.190189	-0.215286	0.991885
2514.000000	1.188907	-0.194859	0.991885
2515.000000	1.187584	-0.203331	0.991885
2516.000000	1.186223	-0.203066	0.991885
2517.000000	1.184852	-0.208241	0.991885
2518.000000	1.183487	-0.210082	0.991885
2519.000000	1.182116	-0.196101	0.991885
2520.000000	1.180730	-0.204549	0.991885
2521.000000	1.179337	-0.220056	0.991885
2522.000000	1.177937	-0.206583	0.991885
2523.000000	1.176500	-0.208162	0.991885
2524.000000	1.175012	-0.209610	0.991885
2525.000000	1.173499	-0.228369	0.991885
2526.000000	1.171987	-0.223328	0.991885
2527.000000	1.170465	-0.223272	0.991885
2528.000000	1.168935	-0.219635	0.991885
2529.000000	1.167412	-0.216083	0.991885
2530.000000	1.165888	-0.209569	0.991885
2531.000000	1.164323	-0.202414	0.991885
2532.000000	1.162694	-0.205555	0.991885
2533.000000	1.161017	-0.224534	0.991885
2534.000000	1.159313	-0.229653	0.991885
2535.000000	1.157566	-0.221340	0.991885
2536.000000	1.155754	-0.222602	0.991885
2537.000000	1.153898	-0.215737	0.991885
2538.000000	1.152034	-0.214251	0.991885
2539.000000	1.150162	-0.217250	0.991885
2540.000000	1.148262	-0.210109	0.991885
2541.000000	1.146338	-0.224048	0.991885
2542.000000	1.144407	-0.242918	0.991885
2543.000000	1.142468	-0.222389	0.991885
2544.000000	1.140507	-0.223848	0.991885
2545.000000	1.138515	-0.232236	0.991885
2546.000000	1.136501	-0.239502	0.991885
2547.000000	1.134471	-0.228964	0.991885
2548.000000	1.132424	-0.210058	0.991885
2549.000000	1.130347	-0.227049	0.991885
2550.000000	1.128243	-0.228600	0.991885
2551.000000	1.126140	-0.237459	0.991885
2552.000000	1.124048	-0.230411	0.991885
2553.000000	1.121946	-0.233620	0.991885
2554.000000	1.119821	-0.235113	0.991885
2555.000000	1.117690	-0.245265	0.991885
2556.000000	1.115559	-0.213161	0.991885
2557.000000	1.113407	-0.236860	0.991885
2558.000000	1.111227	-0.231604	0.991885
2559.000000	1.109026	-0.221490	0.991885
2560.000000	1.106817	-0.248652	0.991885
2561.000000	1.104609	-0.247054	0.991885
2562.000000	1.102397	-0.236549	0.991885
2563.000000	1.100167	-0.227771	0.991885
2564.000000	1.097919	-0.214170	0.991885
2565.000000	1.095674	-0.251522	0.991885
2566.000000	1.093433	-0.222596	0.991885
2567.000000	1.091177	-0.241238	0.991885
2568.000000	1.088898	-0.244722	0.991885
2569.000000	1.086620	-0.229241	0.991885
2570.000000	1.084343	-0.220622	0.991885
2571.000000	1.082046	-0.234095	0.991885
2572.000000	1.079743	-0.237597	0.991885
2573.000000	1.077467	-0.249665	0.991885
2574.000000	1.075235	-0.217181	0.991885
2575.000000	1.073035	-0.227250	0.991885
2576.000000	1.070866	-0.229073	0.991885
2577.000000	1.068753	-0.234178	0.991885
2578.000000	1.066705	-0.239337	0.991885
2579.000000	1.064708	-0.222242	0.991885
2580.000000	1.062762	-0.218606	0.991885
2581.000000	1.060898	-0.223845	0.991885
2582.000000	1.059117	-0.210342	0.991885
2583.000000	1.057390	-0.227625	0.991885
2584.000000	1.055711	-0.218646	0.991885
2585.000000	1.054102	-0.215159	0.991885
2586.000000	1.052575	-0.211909	0.991885
2587.000000	1.051125	-0.208695	0.991885
2588.000000	1.049742	-0.196544	0.991885
2589.000000	1.048429	-0.210247	0.991885
2590.000000	1.047206	-0.213732	0.991885
2591.000000	1.046087	-0.198233	0.991885
2592.000000	1.045052	-0.196629	0.991885
2593.000000	1.044070	-0.194759	0.991885
2594.000000	1.043125	-0.194840	0.991885
2595.000000	1.042220	-0.186472	0.991885
2596.000000	1.041359	-0.184701	0.991885
2597.000000	1.040523	-0.172876	0.991885
2598.000000	1.039713	-0.187886	0.991885
2599.000000	1.038954	-0.194721	0.991885
2600.000000	1.038252	-0.162433	0.991885
2601.000000	1.037599	-0.176190	0.991885
2602.000000	1.036997	-0.182629	0.991885
2603.000000	1.036448	-0.165629	0.991885
2604.000000	1.035955	-0.174335	0.991885
2605.000000	1.035521	-0.169364	0.991885
2606.000000	1.035130	-0.165677	0.991885
2607.000000	1.034769	-0.157152	0.991885
2608.000000	1.034439	-0.163936	0.991885
2609.000000	1.034137	-0.160735	0.991885
2610.000000	1.033843	-0.158999	0.991885
2611.000000	1.033547	-0.159007	0.991885
2612.000000	1.033266	-0.158695	0.991885
2613.000000	1.033031	-0.143538	0.991885
2614.000000	1.032837	-0.136899	0.991885
2615.000000	1.032666	-0.133101	0.991885
2616.000000	1.032509	-0.155563	0.991885
2617.000000	1.032366	-0.152243	0.991885
2618.000000	1.032252	-0.138726	0.991885
2619.000000	1.032164	-0.118098	0.991885
2620.000000	1.032097	-0.133319	0.991885
2621.000000	1.032069	-0.114534	0.991885
2622.000000	1.032081	-0.109489	0.991885
2623.000000	1.032118	-0.107823	0.991885
2624.000000	1.032180	-0.119900	0.991885
2625.000000	1.032281	-0.116291	0.991885
2626.000000	1.032434	-0.121647	0.991885
2627.000000	1.032618	-0.104607	0.991885
2628.000000	1.032802	-0.083934	0.991885
2629.000000	1.032988	-0.118082	0.991885
2630.000000	1.033204	-0.090786	0.991885
2631.000000	1.033453	-0.109971	0.991885
2632.000000	1.033717	-0.104671	0.991885
2633.000000	1.033978	-0.092267	0.991885
2634.000000	1.034256	-0.109680	0.991885
2635.000000	1.034579	-0.099459	0.991885
2636.000000	1.034937	-0.091080	0.991885
2637.000000	1.035315	-0.083668	0.991885
2638.000000	1.035715	-0.101109	0.991885
2639.000000	1.036143	-0.094567	0.991885
2640.000000	1.036592	-0.111509	0.991885
2641.000000	1.037053	-0.089352	0.991885
2642.000000	1.037540	-0.075537	0.991885
2643.000000	1.038062	-0.101315	0.991885
2644.000000	1.038621	-0.090730	0.991885
2645.000000	1.039222	-0.084136	0.991885
2646.000000	1.039857	-0.101125	0.991885
2647.000000	1.040503	-0.099829	0.991885
2648.000000	1.041163	-0.092615	0.991885
2649.000000	1.041854	-0.096240	0.991885
2650.000000	1.042580	-0.091108	0.991885
2651.000000	1.043326	-0.091036	0.991885
2652.000000	1.044084	-0.084248	0.991885
2653.000000	1.044859	-0.080749	0.991885
2654.000000	1.045648	-0.084248	0.991885
2655.000000	1.046434	-0.080816	0.991885
2656.000000	1.047222	-0.078897	0.991885
2657.000000	1.048046	-0.084268	0.991885
2658.000000	1.048912	-0.084452	0.991885
2659.000000	1.049791	-0.068795	0.991885
2660.000000	1.050658	-0.059853	0.991885
2661.000000	1.051518	-0.075793	0.991885
2662.000000	1.052384	-0.075937	0.991885
2663.000000	1.053238	-0.074089	0.991885
2664.000000	1.054052	-0.068883	0.991885
2665.000000	1.054831	-0.077333	0.991885
2666.000000	1.055610	-0.080975	0.991885
2667.000000	1.056420	-0.068794	0.991885
2668.000000	1.057251	-0.058469	0.991885
2669.000000	1.058094	-0.077344	0.991885
2670.000000	1.058967	-0.089455	0.991885
2671.000000	1.059856	-0.072689	0.991885
2672.000000	1.060728	-0.072349	0.991885
2673.000000	1.061592	-0.070462	0.991885
2674.000000	1.062475	-0.074112	0.991885
2675.000000	1.063386	-0.067407	0.991885
2676.000000	1.064314	-0.048848	0.991885
2677.000000	1.065249	-0.055253	0.991885
2678.000000	1.066191	-0.062218	0.991885
2679.000000	1.067151	-0.070755	0.991885
2680.000000	1.068135	-0.045030	0.991885
2681.000000	1.069135	-0.062208	0.991885
2682.000000	1.070157	-0.063924	0.991885
2683.000000	1.071211	-0.060727	0.991885
2684.000000	1.072262	-0.047108	0.991885
2685.000000	1.073280	-0.039886	0.991885
2686.000000	1.074293	-0.053445	0.991885
2687.000000	1.075349	-0.067442	0.991885
2688.000000	1.076452	-0.045679	0.991885
2689.000000	1.077570	-0.050470	0.991885
2690.000000	1.078687	-0.048773	0.991885
2691.000000	1.079815	-0.028160	0.991885
2692.000000	1.080961	-0.029673	0.991885
2693.000000	1.082121	-0.038892	0.991885
2694.000000	1.083266	-0.028329	0.991885
2695.000000	1.084376	-0.023181	0.991885
2696.000000	1.085472	-0.028194	0.991885
2697.000000	1.086575	-0.026690	0.991885
2698.000000	1.087684	-0.025119	0.991885
2699.000000	1.088790	-0.021384	0.991885
2700.000000	1.089875	-0.029890	0.991885
2701.000000	1.090925	-0.016530	0.991885
2702.000000	1.091961	-0.028559	0.991885
2703.000000	1.092992	-0.014697	0.991885
2704.000000	1.094008	-0.028462	0.991885
2705.000000	1.095013	0.000718	0.991885
2706.000000	1.096009	-0.015015	0.991885
2707.000000	1.096982	-0.004742	0.991885
2708.000000	1.097914	-0.007906	0.991885
2709.000000	1.098821	-0.006301	0.991885
2710.000000	1.099737	-0.006462	0.991885
2711.000000	1.100662	0.000273	0.991885
2712.000000	1.101569	0.000403	0.991885
2713.000000	1.102445	-0.016484	0.991885
2714.000000	1.103309	-0.030121	0.991885
2715.000000	1.104179	-0.018356	0.991885
2716.000000	1.105033	0.003702	0.991885
2717.000000	1.105842	0.000418	0.991885
2718.000000	1.106613	0.008961	0.991885
2719.000000	1.107373	-0.001326	0.991885
2720.000000	1.108123	0.017633	0.991885
2721.000000	1.108842	0.008962	0.991885
2722.000000	1.109526	0.009103	0.991885
2723.000000	1.110190	0.002089	0.991885
2724.000000	1.110827	0.001914	0.991885
2725.000000	1.111406	0.003694	0.991885
2726.000000	1.111917	0.012550	0.991885
2727.000000	1.112376	0.024443	0.991885
2728.000000	1.112805	0.003731	0.991885
2729.000000	1.113207	0.015531	0.991885
2730.000000	1.113562	0.007262	0.991885
2731.000000	1.113856	0.024509	0.991885
2732.000000	1.114103	0.024261	0.991885
2733.000000	1.114325	0.000758	0.991885
2734.000000	1.114517	0.020872	0.991885
2735.000000	1.114657	0.019199	0.991885
2736.000000	1.114734	0.015856	0.991885
2737.000000	1.114761	0.010768	0.991885
2738.000000	1.114760	0.022314	0.991885
2739.000000	1.114728	0.031354	0.991885
2740.000000	1.114663	0.036320	0.991885
2741.000000	1.114568	0.032788	0.991885
2742.000000	1.114440	0.019161	0.991885
2743.000000	1.114275	0.024232	0.991885
2744.000000	1.114048	0.034604	0.991885
2745.000000	1.113759	0.021145	0.991885
2746.000000	1.113443	0.020868	0.991885
2747.000000	1.113113	0.034559	0.991885
2748.000000	1.112738	0.041533	0.991885
2749.000000	1.112301	0.027942	0.991885
2750.000000	1.111833	0.033069	0.991885
2751.000000	1.111362	0.026128	0.991885
2752.000000	1.110881	0.022772	0.991885
2753.000000	1.110374	0.036586	0.991885
2754.000000	1.109851	0.014432	0.991885
2755.000000	1.109335	0.017466	0.991885
2756.000000	1.108809	0.038185	0.991885
2757.000000	1.108243	0.026204	0.991885
2758.000000	1.107649	0.014353	0.991885
2759.000000	1.107050	0.016069	0.991885
2760.000000	1.106445	0.017634	0.991885
2761.000000	1.105819	0.041733	0.991885
2762.000000	1.105165	0.036507	0.991885
2763.000000	1.104503	0.007361	0.991885
2764.000000	1.103853	0.002233	0.991885
2765.000000	1.103211	0.041884	0.991885
2766.000000	1.102578	0.016318	0.991885
2767.000000	1.101972	0.022985	0.991885
2768.000000	1.101385	0.039869	0.991885
2769.000000	1.100790	0.033285	0.991885
2770.000000	1.100181	0.011077	0.991885
2771.000000	1.099590	0.026511	0.991885
2772.000000	1.099035	0.002616	0.991885
2773.000000	1.098499	0.036984	0.991885
2774.000000	1.097969	0.014541	0.991885
2775.000000	1.097452	0.012751	0.991885
2776.000000	1.096953	0.026240	0.991885
2777.000000	1.096463	0.019632	0.991885
2778.000000	1.095957	0.023334	0.991885
2779.000000	1.095437	0.011314	0.991885
2780.000000	1.094920	0.016388	0.991885
2781.000000	1.094401	0.013210	0.991885
2782.000000	1.093884	0.021699	0.991885
2783.000000	1.093379	0.013104	0.991885
2784.000000	1.092889	0.016221	0.991885
2785.000000	1.092402	0.035224	0.991885
2786.000000	1.091902	0.014851	0.991885
2787.000000	1.091400	0.004953	0.991885
2788.000000	1.090914	-0.000681	0.991885
2789.000000	1.090429	0.021589	0.991885
2790.000000	1.089932	0.026956	0.991885
2791.000000	1.089438	0.020342	0.991885
2792.000000	1.088956	-0.000472	0.991885
2793.000000	1.088478	0.011531	0.991885
2794.000000	1.087974	0.018337	0.991885
2795.000000	1.087446	-0.000360	0.991885
2796.000000	1.086927	-0.000498	0.991885
2797.000000	1.086416	0.016462	0.991885
2798.000000	1.085894	0.001121	0.991885
2799.000000	1.085347	0.011736	0.991885
2800.000000	1.084787	0.010049	0.991885
2801.000000	1.084239	0.011609	0.991885
2802.000000	1.083707	0.020158	0.991885
2803.000000	1.083176	0.006411	0.991885
2804.000000	1.082639	0.013317	0.991885
2805.000000	1.082103	0.023672	0.991885
2806.000000	1.081581	0.003132	0.991885
2807.000000	1.081057	0.015107	0.991885
2808.000000	1.080518	0.027487	0.991885
2809.000000	1.079977	0.003089	0.991885
2810.000000	1.079460	0.025141	0.991885
2811.000000	1.078967	0.009984	0.991885
2812.000000	1.078484	-0.003577	0.991885
2813.000000	1.078026	0.008455	0.991885
2814.000000	1.077622	0.015353	0.991885
2815.000000	1.077255	0.013569	0.991885
2816.000000	1.076886	0.011715	0.991885
2817.000000	1.076519	0.012025	0.991885
2818.000000	1.076177	0.016826	0.991885
2819.000000	1.075865	0.015084	0.991885
2820.000000	1.075563	0.017176	0.991885
2821.000000	1.075260	0.003414	0.991885
2822.000000	1.074968	-0.012214	0.991885
2823.000000	1.074701	0.001430	0.991885
2824.000000	1.074442	0.015490	0.991885
2825.000000	1.074169	0.003547	0.991885
2826.000000	1.073887	0.003574	0.991885
2827.000000	1.073621	0.003351	0.991885
2828.000000	1.073372	0.008427	0.991885
2829.000000	1.073116	0.008627	0.991885
2830.000000	1.072833	-0.006843	0.991885
2831.000000	1.072528	-0.010230	0.991885
2832.000000	1.072210	0.004975	0.991885
2833.000000	1.071881	-0.008585	0.991885
2834.000000	1.071524	0.005088	0.991885
2835.000000	1.071133	0.001841	0.991885
2836.000000	1.070759	-0.020517	0.991885
2837.000000	1.070426	0.001692	0.991885
2838.000000	1.070084	0.003339	0.991885
2839.000000	1.069718	-0.013315	0.991885
2840.000000	1.069353	0.010424	0.991885
2841.000000	1.068994	-0.000116	0.991885
2842.000000	1.068618	0.001742	0.991885
2843.000000	1.068203	-0.011552	0.991885
2844.000000	1.067770	-0.027058	0.991885
2845.000000	1.067352	-0.018582	0.991885
2846.000000	1.066942	0.011913	0.991885
2847.000000	1.066513	-0.013224	0.991885
2848.000000	1.066067	0.000472	0.991885
2849.000000	1.065613	-0.020343	0.991885
2850.000000	1.065147	-0.020374	0.991885
2851.000000	1.064659	-0.004599	0.991885
2852.000000	1.064152	-0.027080	0.991885
2853.000000	1.063650	-0.033720	0.991885
2854.000000	1.063165	-0.033921	0.991885
2855.000000	1.062689	-0.028665	0.991885
2856.000000	1.062211	-0.021645	0.991885
2857.000000	1.061730	-0.035307	0.991885
2858.000000	1.061250	-0.038535	0.991885
2859.000000	1.060755	-0.021687	0.991885
2860.000000	1.060228	-0.037052	0.991885
2861.000000	1.059693	-0.048548	0.991885
2862.000000	1.059180	-0.036964	0.991885
2863.000000	1.058671	-0.050670	0.991885
2864.000000	1.058141	-0.029806	0.991885
2865.000000	1.057598	-0.048760	0.991885
2866.000000	1.057053	-0.048882	0.991885
2867.000000	1.056505	-0.048991	0.991885
2868.000000	1.055939	-0.050337	0.991885
2869.000000	1.055339	-0.060615	0.991885
2870.000000	1.054723	-0.056901	0.991885
2871.000000	1.054111	-0.053695	0.991885
2872.000000	1.053494	-0.062395	0.991885
2873.000000	1.052865	-0.058685	0.991885
2874.000000	1.052223	-0.063744	0.991885
2875.000000	1.051573	-0.056985	0.991885
2876.000000	1.050923	-0.065663	0.991885
2877.000000	1.050273	-0.060576	0.991885
2878.000000	1.049612	-0.056879	0.991885
2879.000000	1.048934	-0.055084	0.991885
2880.000000	1.048245	-0.062163	0.991885
2881.000000	1.047565	-0.070501	0.991885
2882.000000	1.046886	-0.061869	0.991885
2883.000000	1.046189	-0.066961	0.991885
2884.000000	1.045475	-0.092560	0.991885
2885.000000	1.044763	-0.074220	0.991885
2886.000000	1.044059	-0.073917	0.991885
2887.000000	1.043382	-0.080605	0.991885
2888.000000	1.042754	-0.073595	0.991885
2889.000000	1.042163	-0.090916	0.991885
2890.000000	1.041586	-0.082356	0.991885
2891.000000	1.041012	-0.101188	0.991885
2892.000000	1.040434	-0.083928	0.991885
2893.000000	1.039857	-0.080584	0.991885
2894.000000	1.039285	-0.083784	0.991885
2895.000000	1.038702	-0.071882	0.991885
2896.000000	1.038107	-0.071775	0.991885
2897.000000	1.037521	-0.087183	0.991885
2898.000000	1.036956	-0.101095	0.991885
2899.000000	1.036388	-0.097740	0.991885
2900.000000	1.035803	-0.099121	0.991885
2901.000000	1.035231	-0.088937	0.991885
2902.000000	1.034701	-0.100824	0.991885
2903.000000	1.034208	-0.083863	0.991885
2904.000000	1.033732	-0.088697	0.991885
2905.000000	1.033269	-0.112669	0.991885
2906.000000	1.032836	-0.100946	0.991885
2907.000000	1.032423	-0.104178	0.991885
2908.000000	1.032009	-0.092115	0.991885
2909.000000	1.031597	-0.107429	0.991885
2910.000000	1.031210	-0.126220	0.991885
2911.000000	1.030854	-0.104322	0.991885
2912.000000	1.030511	-0.116014	0.991885
2913.000000	1.030158	-0.097074	0.991885
2914.000000	1.029797	-0.105797	0.991885
2915.000000	1.029449	-0.114570	0.991885
2916.000000	1.029115	-0.115894	0.991885
2917.000000	1.028779	-0.107254	0.991885
2918.000000	1.028429	-0.114171	0.991885
2919.000000	1.028065	-0.115732	0.991885
2920.000000	1.027691	-0.112586	0.991885
2921.000000	1.027300	-0.107362	0.991885
2922.000000	1.026904	-0.107091	0.991885
2923.000000	1.026538	-0.114172	0.991885
2924.000000	1.026208	-0.107357	0.991885
2925.000000	1.025883	-0.122613	0.991885
2926.000000	1.025532	-0.112235	0.991885
2927.000000	1.025166	-0.136225	0.991885
2928.000000	1.024815	-0.122527	0.991885
2929.000000	1.024472	-0.103915	0.991885
2930.000000	1.024118	-0.129236	0.991885
2931.000000	1.023766	-0.129447	0.991885
2932.000000	1.023425	-0.131036	0.991885
2933.000000	1.023086	-0.120992	0.991885
2934.000000	1.022739	-0.107089	0.991885
2935.000000	1.022383	-0.125714	0.991885
2936.000000	1.022026	-0.129221	0.991885
2937.000000	1.021674	-0.112155	0.991885
2938.000000	1.021318	-0.110291	0.991885
2939.000000	1.020939	-0.134414	0.991885
2940.000000	1.020540	-0.130981	0.991885
2941.000000	1.020144	-0.112323	0.991885
2942.000000	1.019755	-0.132898	0.991885
2943.000000	1.019372	-0.122261	0.991885
2944.000000	1.019004	-0.131032	0.991885
2945.000000	1.018655	-0.114149	0.991885
2946.000000	1.018314	-0.131152	0.991885
2947.000000	1.017985	-0.139344	0.991885
2948.000000	1.017680	-0.116759	0.991885
2949.000000	1.017420	-0.130965	0.991885
2950.000000	1.017207	-0.136184	0.991885
2951.000000	1.017020	-0.106776	0.991885
2952.000000	1.016842	-0.113833	0.991885
2953.000000	1.016686	-0.115576	0.991885
2954.000000	1.016574	-0.132657	0.991885
2955.000000	1.016512	-0.120561	0.991885
2956.000000	1.016471	-0.122587	0.991885
2957.000000	1.016420	-0.113750	0.991885
2958.000000	1.016369	-0.112068	0.991885
2959.000000	1.016338	-0.119205	0.991885
2960.000000	1.016315	-0.105301	0.991885
2961.000000	1.016299	-0.110425	0.991885
2962.000000	1.016319	-0.135867	0.991885
2963.000000	1.016392	-0.110763	0.991885
2964.000000	1.016502	-0.102014	0.991885
2965.000000	1.016621	-0.106988	0.991885
2966.000000	1.016739	-0.110531	0.991885
2967.000000	1.016871	-0.115827	0.991885
2968.000000	1.017021	-0.103749	0.991885
2969.000000	1.017176	-0.098578	0.991885
2970.000000	1.017343	-0.120880	0.991885
2971.000000	1.017552	-0.110507	0.991885
2972.000000	1.017805	-0.100336	0.991885
2973.000000	1.018077	-0.093365	0.991885
2974.000000	1.018360	-0.115741	0.991885
2975.000000	1.018653	-0.112226	0.991885
2976.000000	1.018965	-0.091947	0.991885
2977.000000	1.019286	-0.109043	0.991885
2978.000000	1.019599	-0.114127	0.991885
2979.000000	1.019917	-0.100266	0.991885
2980.000000	1.020268	-0.097177	0.991885
2981.000000	1.020648	-0.097211	0.991885
2982.000000	1.021037	-0.107264	0.991885
2983.000000	1.021436	-0.115989	0.991885
2984.000000	1.021865	-0.090255	0.991885
2985.000000	1.022312	-0.090100	0.991885
