0.000000	4.873386	0.003538	6.286472
1.000000	4.836583	0.012052	6.286472
2.000000	4.765880	0.012008	6.286472
3.000000	4.665977	-0.003518	6.286472
4.000000	4.541231	0.003568	6.286472
5.000000	4.395658	-0.005159	6.286472
6.000000	4.232955	0.003389	6.286472
7.000000	4.056507	-0.005020	6.286472
8.000000	3.869396	0.001729	6.286472
9.000000	3.674418	-0.013566	6.286472
10.000000	3.474071	-0.005094	6.286472
11.000000	3.270593	0.013731	6.286472
12.000000	3.065989	-0.003344	6.286472
13.000000	2.862023	-0.016991	6.286472
14.000000	2.660236	-0.006585	6.286472
15.000000	2.461962	-0.012030	6.286472
16.000000	2.268353	-0.017221	6.286472
17.000000	2.080381	0.005016	6.286472
18.000000	1.898843	-0.018989	6.286472
19.000000	1.724400	-0.001519	6.286472
20.000000	1.557580	-0.005101	6.286472
21.000000	1.398771	-0.010036	6.286472
22.000000	1.248250	-0.006791	6.286472
23.000000	1.106205	0.006915	6.286472
24.000000	0.972745	-0.008548	6.286472
25.000000	0.847896	0.008551	6.286472
26.000000	0.731591	-0.003412	6.286472
27.000000	0.623710	-0.009994	6.286472
28.000000	0.524087	-0.008384	6.286472
29.000000	0.432503	0.008518	6.286472
30.000000	0.348696	-0.010193	6.286472
31.000000	0.272373	0.013697	6.286472
32.000000	0.203228	-0.003467	6.286472
33.000000	0.140950	-0.006789	6.286472
34.000000	0.085193	-0.003318	6.286472
35.000000	0.035584	0.003304	6.286472
36.000000	-0.008234	-0.001778	6.286472
37.000000	-0.046610	0.008652	6.286472
38.000000	-0.079916	0.001773	6.286472
39.000000	-0.108525	-0.011922	6.286472
40.000000	-0.132771	0.008523	6.286472
41.000000	-0.152986	-0.005188	6.286472
42.000000	-0.169489	-0.005178	6.286472
43.000000	-0.182570	0.001615	6.286472
44.000000	-0.192544	-0.005238	6.286472
45.000000	-0.199735	0.008396	6.286472
46.000000	-0.204430	-0.003421	6.286472
47.000000	-0.206891	0.006883	6.286472
48.000000	-0.207374	-0.005090	6.286472
49.000000	-0.206126	-0.006877	6.286472
50.000000	-0.203368	0.004972	6.286472
51.000000	-0.199306	0.010358	6.286472
52.000000	-0.194134	-0.000108	6.286472
53.000000	-0.188035	0.012045	6.286472
54.000000	-0.181153	-0.005268	6.286472
55.000000	-0.173626	-0.006842	6.286472
56.000000	-0.165616	-0.005049	6.286472
57.000000	-0.157268	-0.008549	6.286472
58.000000	-0.148696	-0.022441	6.286472
59.000000	-0.139995	-0.000124	6.286472
60.000000	-0.131242	-0.005296	6.286472
61.000000	-0.122513	0.001730	6.286472
62.000000	-0.113870	0.005232	6.286472
63.000000	-0.105374	-0.015527	6.286472
64.000000	-0.097072	-0.006931	6.286472
65.000000	-0.088995	0.001667	6.286472
66.000000	-0.081186	-0.027279	6.286472
67.000000	-0.073686	-0.001833	6.286472
68.000000	-0.066522	-0.003578	6.286472
69.000000	-0.059724	-0.005236	6.286472
70.000000	-0.053304	0.006867	6.286472
71.000000	-0.047250	-0.003751	6.286472
72.000000	-0.041558	-0.001678	6.286472
73.000000	-0.036239	-0.000118	6.286472
74.000000	-0.031302	-0.006827	6.286472
75.000000	-0.026734	-0.008740	6.286472
76.000000	-0.022512	-0.006916	6.286472
77.000000	-0.018619	-0.010224	6.286472
78.000000	-0.015048	-0.022322	6.286472
79.000000	-0.011783	-0.001767	6.286472
80.000000	-0.008815	-0.005098	6.286472
81.000000	-0.006133	-0.017320	6.286472
82.000000	-0.003711	-0.011779	6.286472
83.000000	-0.001530	-0.005267	6.286472
84.000000	0.000425	-0.010264	6.286472
85.000000	0.002161	-0.003710	6.286472
86.000000	0.003678	-0.010347	6.286472
87.000000	0.004988	-0.000227	6.286472
88.000000	0.006086	-0.012016	6.286472
89.000000	0.006974	-0.005132	6.286472
90.000000	0.007692	-0.015789	6.286472
91.000000	0.008278	-0.008595	6.286472
92.000000	0.008742	0.010325	6.286472
93.000000	0.009085	-0.005092	6.286472
94.000000	0.009310	-0.013747	6.286472
95.000000	0.009429	-0.017251	6.286472
96.000000	0.009468	-0.005204	6.286472
97.000000	0.009431	-0.001711	6.286472
98.000000	0.009314	-0.001803	6.286472
99.000000	0.009144	-0.012166	6.286472
100.000000	0.008946	-0.003235	6.286472
101.000000	0.008720	-0.008626	6.286472
102.000000	0.008471	0.001569	6.286472
103.000000	0.008215	0.003274	6.286472
104.000000	0.007939	-0.001747	6.286472
105.000000	0.007631	0.006775	6.286472
106.000000	0.007294	-0.013989	6.286472
107.000000	0.006928	-0.008738	6.286472
108.000000	0.006538	-0.001906	6.286472
109.000000	0.006147	0.003278	6.286472
110.000000	0.005768	-0.017208	6.286472
111.000000	0.005400	-0.017250	6.286472
112.000000	0.005035	-0.003506	6.286472
113.000000	0.004674	-0.017214	6.286472
114.000000	0.004319	-0.008509	6.286472
115.000000	0.003959	-0.010355	6.286472
116.000000	0.003594	-0.008457	6.286472
117.000000	0.003229	9.349997E-5	6.286472
118.000000	0.002870	-0.010184	6.286472
119.000000	0.002540	-0.022448	6.286472
120.000000	0.002253	0.003228	6.286472
121.000000	0.001991	-0.015407	6.286472
122.000000	0.001737	0.004924	6.286472
123.000000	0.001507	-0.010297	6.286472
124.000000	0.001315	-0.003440	6.286472
125.000000	0.001155	-0.006937	6.286472
126.000000	0.001018	0.008598	6.286472
127.000000	0.000906	-0.015477	6.286472
128.000000	0.000819	-0.003403	6.286472
129.000000	0.000768	0.010264	6.286472
130.000000	0.000756	-0.008437	6.286472
131.000000	0.000769	-0.003402	6.286472
132.000000	0.000799	0.001697	6.286472
133.000000	0.000853	-0.011883	6.286472
134.000000	0.000924	-0.006757	6.286472
135.000000	0.001012	-6.875029E-5	6.286472
136.000000	0.001121	-0.008564	6.286472
137.000000	0.001228	-0.003236	6.286472
138.000000	0.001330	0.001676	6.286472
139.000000	0.001446	-0.012065	6.286472
140.000000	0.001567	0.013792	6.286472
141.000000	0.001685	-0.003375	6.286472
142.000000	0.001805	-0.001782	6.286472
143.000000	0.001933	-0.001635	6.286472
144.000000	0.002048	-0.006745	6.286472
145.000000	0.002136	-0.001746	6.286472
146.000000	0.002222	-0.003571	6.286472
147.000000	0.002313	-0.001893	6.286472
148.000000	0.002400	0.006474	6.286472
149.000000	0.002481	-0.010381	6.286472
150.000000	0.002547	-0.005408	6.286472
151.000000	0.002600	0.005126	6.286472
152.000000	0.002649	-0.000169	6.286472
153.000000	0.002705	0.013557	6.286472
154.000000	0.002763	-0.008730	6.286472
155.000000	0.002816	-0.003437	6.286472
156.000000	0.002863	-0.003712	6.286472
157.000000	0.002911	0.006924	6.286472
158.000000	0.002963	0.024156	6.286472
159.000000	0.003015	0.001817	6.286472
160.000000	0.003061	-0.020955	6.286472
161.000000	0.003096	-5.923854E-5	6.286472
162.000000	0.003123	-0.014021	6.286472
163.000000	0.003145	-0.001763	6.286472
164.000000	0.003173	-0.000356	6.286472
165.000000	0.003220	0.006750	6.286472
166.000000	0.003285	0.006931	6.286472
167.000000	0.003350	0.003569	6.286472
168.000000	0.003402	0.006594	6.286472
169.000000	0.003455	-0.010377	6.286472
170.000000	0.003519	-0.005423	6.286472
171.000000	0.003581	0.003296	6.286472
172.000000	0.003631	0.015288	6.286472
173.000000	0.003667	-0.003525	6.286472
174.000000	0.003702	0.011951	6.286472
175.000000	0.003743	0.007090	6.286472
176.000000	0.003779	0.022172	6.286472
177.000000	0.003818	-6.247942E-5	6.286472
178.000000	0.003873	0.020153	6.286472
179.000000	0.003938	0.001662	6.286472
180.000000	0.004010	-0.005452	6.286472
181.000000	0.004093	0.006921	6.286472
182.000000	0.004183	0.018696	6.286472
183.000000	0.004276	0.008552	6.286472
184.000000	0.004374	-0.005339	6.286472
185.000000	0.004471	-0.008637	6.286472
186.000000	0.004557	-0.001902	6.286472
187.000000	0.004631	0.001674	6.286472
188.000000	0.004686	0.018647	6.286472
189.000000	0.004739	-0.008654	6.286472
190.000000	0.004804	0.001784	6.286472
191.000000	0.004875	-0.006839	6.286472
192.000000	0.004981	-0.005367	6.286472
193.000000	0.005143	-0.015290	6.286472
194.000000	0.005322	0.017158	6.286472
195.000000	0.005485	-0.008495	6.286472
196.000000	0.005641	0.006723	6.286472
197.000000	0.005799	0.005272	6.286472
198.000000	0.005953	0.010027	6.286472
199.000000	0.006099	0.001561	6.286472
200.000000	0.006238	0.004971	6.286472
201.000000	0.006373	0.008581	6.286472
202.000000	0.006507	0.006641	6.286472
203.000000	0.006637	-0.000113	6.286472
204.000000	0.006743	-0.001901	6.286472
205.000000	0.006816	0.003490	6.286472
206.000000	0.006869	0.006840	6.286472
207.000000	0.006920	0.013824	6.286472
208.000000	0.006971	0.022253	6.286472
209.000000	0.007007	-0.001821	6.286472
210.000000	0.007029	0.015234	6.286472
211.000000	0.007052	0.007031	6.286472
212.000000	0.007082	0.008282	6.286472
213.000000	0.007105	0.003458	6.286472
214.000000	0.007106	0.008433	6.286472
215.000000	0.007080	-0.001566	6.286472
216.000000	0.007041	0.008214	6.286472
217.000000	0.007007	-0.003328	6.286472
218.000000	0.006985	-0.008824	6.286472
219.000000	0.006970	6.279733E-5	6.286472
220.000000	0.006952	-0.003451	6.286472
221.000000	0.006921	-0.011990	6.286472
222.000000	0.006879	0.005000	6.286472
223.000000	0.006834	-0.003399	6.286472
224.000000	0.006779	0.004921	6.286472
225.000000	0.006707	-0.005199	6.286472
226.000000	0.006624	-0.006958	6.286472
227.000000	0.006528	0.020415	6.286472
228.000000	0.006421	-0.019014	6.286472
229.000000	0.006305	0.013788	6.286472
230.000000	0.006190	0.003221	6.286472
231.000000	0.006091	-0.003450	6.286472
232.000000	0.006012	0.004765	6.286472
233.000000	0.005951	-0.006845	6.286472
234.000000	0.005904	0.001493	6.286472
235.000000	0.005871	0.005050	6.286472
236.000000	0.005853	-0.006936	6.286472
237.000000	0.005847	0.006841	6.286472
238.000000	0.005844	0.006873	6.286472
239.000000	0.005846	0.020441	6.286472
240.000000	0.005853	0.006403	6.286472
241.000000	0.005864	-0.003651	6.286472
242.000000	0.005885	-0.000203	6.286472
243.000000	0.005921	0.010272	6.286472
244.000000	0.005963	0.017153	6.286472
245.000000	0.005995	0.001696	6.286472
246.000000	0.006026	0.008634	6.286472
247.000000	0.006075	-0.003523	6.286472
248.000000	0.006133	0.000343	6.286472
249.000000	0.006179	0.010411	6.286472
250.000000	0.006222	0.003508	6.286472
251.000000	0.006271	0.006722	6.286472
252.000000	0.006326	0.006959	6.286472
253.000000	0.006380	-0.004959	6.286472
254.000000	0.006423	-0.001418	6.286472
255.000000	0.006458	-0.003472	6.286472
256.000000	0.006501	-0.008695	6.286472
257.000000	0.006554	-0.008602	6.286472
258.000000	0.006599	0.005264	6.286472
259.000000	0.006637	-0.000214	6.286472
260.000000	0.006671	-0.006814	6.286472
261.000000	0.006694	0.006505	6.286472
262.000000	0.006681	-0.003186	6.286472
263.000000	0.006607	0.005273	6.286472
264.000000	0.006493	0.003632	6.286472
265.000000	0.006375	5.288069E-5	6.286472
266.000000	0.006255	-0.003254	6.286472
267.000000	0.006147	-0.003695	6.286472
268.000000	0.006063	0.013890	6.286472
269.000000	0.006002	0.000120	6.286472
270.000000	0.005959	0.005285	6.286472
271.000000	0.005921	0.003433	6.286472
272.000000	0.005878	0.013724	6.286472
273.000000	0.005831	-0.007012	6.286472
274.000000	0.005771	0.010242	6.286472
275.000000	0.005698	0.013867	6.286472
276.000000	0.005623	0.008684	6.286472
277.000000	0.005557	-0.001664	6.286472
278.000000	0.005508	0.003753	6.286472
279.000000	0.005479	-0.001757	6.286472
280.000000	0.005460	-0.015452	6.286472
281.000000	0.005436	-0.001746	6.286472
282.000000	0.005400	0.001558	6.286472
283.000000	0.005362	0.017271	6.286472
284.000000	0.005323	0.007116	6.286472
285.000000	0.005273	0.005294	6.286472
286.000000	0.005219	-0.001334	6.286472
287.000000	0.005174	0.000268	6.286472
288.000000	0.005138	0.001833	6.286472
289.000000	0.005119	0.006813	6.286472
290.000000	0.005129	0.006789	6.286472
291.000000	0.005147	-0.003479	6.286472
292.000000	0.005142	0.008614	6.286472
293.000000	0.005119	0.010332	6.286472
294.000000	0.005096	0.001776	6.286472
295.000000	0.005079	0.006962	6.286472
296.000000	0.005068	-0.001615	6.286472
297.000000	0.005059	0.001751	6.286472
298.000000	0.005058	0.008516	6.286472
299.000000	0.005068	0.006712	6.286472
300.000000	0.005079	-0.010056	6.286472
301.000000	0.005070	0.005293	6.286472
302.000000	0.005029	0.006846	6.286472
303.000000	0.004976	0.015644	6.286472
304.000000	0.004913	0.005100	6.286472
305.000000	0.004827	0.007078	6.286472
306.000000	0.004722	-0.003251	6.286472
307.000000	0.004600	-9.810409E-5	6.286472
308.000000	0.004457	0.001549	6.286472
309.000000	0.004298	-0.007061	6.286472
310.000000	0.004125	0.001714	6.286472
311.000000	0.003935	-0.001743	6.286472
312.000000	0.003727	-0.008711	6.286472
313.000000	0.003503	-0.001816	6.286472
314.000000	0.003274	0.006910	6.286472
315.000000	0.003035	-0.013847	6.286472
316.000000	0.002783	-0.013747	6.286472
317.000000	0.002528	-0.003590	6.286472
318.000000	0.002279	7.472215E-7	6.286472
319.000000	0.002045	0.004903	6.286472
320.000000	0.001841	-0.005124	6.286472
321.000000	0.001674	0.018838	6.286472
322.000000	0.001543	-0.017086	6.286472
323.000000	0.001445	0.013529	6.286472
324.000000	0.001376	-0.013725	6.286472
325.000000	0.001317	0.005029	6.286472
326.000000	0.001258	-0.001702	6.286472
327.000000	0.001201	0.001597	6.286472
328.000000	0.001154	-0.003573	6.286472
329.000000	0.001121	0.004927	6.286472
330.000000	0.001099	0.006801	6.286472
331.000000	0.001088	0.006757	6.286472
332.000000	0.001087	-0.006876	6.286472
333.000000	0.001085	-0.000202	6.286472
334.000000	0.001076	0.006750	6.286472
335.000000	0.001065	0.001486	6.286472
336.000000	0.001062	-0.001682	6.286472
337.000000	0.001070	-0.001801	6.286472
338.000000	0.001087	-0.008479	6.286472
339.000000	0.001118	0.018637	6.286472
340.000000	0.001156	0.006862	6.286472
341.000000	0.001197	-0.005288	6.286472
342.000000	0.001256	0.015214	6.286472
343.000000	0.001347	-0.003689	6.286472
344.000000	0.001452	0.006754	6.286472
345.000000	0.001544	-0.007129	6.286472
346.000000	0.001622	-0.010306	6.286472
347.000000	0.001697	0.001223	6.286472
348.000000	0.001780	-0.010359	6.286472
349.000000	0.001876	0.006333	6.286472
350.000000	0.001986	-0.001810	6.286472
351.000000	0.002095	0.004893	6.286472
352.000000	0.002193	-0.003550	6.286472
353.000000	0.002279	-0.015657	6.286472
354.000000	0.002378	-0.010505	6.286472
355.000000	0.002514	-0.005324	6.286472
356.000000	0.002668	0.001713	6.286472
357.000000	0.002807	-0.007243	6.286472
358.000000	0.002933	0.010162	6.286472
359.000000	0.003056	-0.005338	6.286472
360.000000	0.003165	0.001596	6.286472
361.000000	0.003254	0.018418	6.286472
362.000000	0.003334	-0.001977	6.286472
363.000000	0.003406	0.006284	6.286472
364.000000	0.003456	0.003549	6.286472
365.000000	0.003495	0.027177	6.286472
366.000000	0.003544	0.003177	6.286472
367.000000	0.003608	0.003191	6.286472
368.000000	0.003682	0.003295	6.286472
369.000000	0.003762	-0.005396	6.286472
370.000000	0.003836	-0.005062	6.286472
371.000000	0.003896	0.008274	6.286472
372.000000	0.003947	-0.003584	6.286472
373.000000	0.003992	0.001451	6.286472
374.000000	0.004028	0.005001	6.286472
375.000000	0.004052	-0.003728	6.286472
376.000000	0.004056	0.008220	6.286472
377.000000	0.004038	0.001368	6.286472
378.000000	0.004009	0.003236	6.286472
379.000000	0.003975	-0.001893	6.286472
380.000000	0.003932	0.006934	6.286472
381.000000	0.003888	0.001462	6.286472
382.000000	0.003851	0.003300	6.286472
383.000000	0.003816	-0.003783	6.286472
384.000000	0.003777	-0.005474	6.286472
385.000000	0.003736	0.004914	6.286472
386.000000	0.003700	0.003291	6.286472
387.000000	0.003664	0.008368	6.286472
388.000000	0.003618	-0.003522	6.286472
389.000000	0.003577	-0.000217	6.286472
390.000000	0.003547	0.003527	6.286472
391.000000	0.003507	0.008586	6.286472
392.000000	0.003445	0.001630	6.286472
393.000000	0.003366	-0.010632	6.286472
394.000000	0.003282	-0.010542	6.286472
395.000000	0.003195	0.010377	6.286472
396.000000	0.003101	0.023928	6.286472
397.000000	0.003004	-0.003604	6.286472
398.000000	0.002897	-0.001893	6.286472
399.000000	0.002775	0.013780	6.286472
400.000000	0.002647	-0.001626	6.286472
401.000000	0.002532	0.001558	6.286472
402.000000	0.002441	-0.005370	6.286472
403.000000	0.002369	-0.015332	6.286472
404.000000	0.002308	0.008588	6.286472
405.000000	0.002263	-6.430791E-5	6.286472
406.000000	0.002234	0.013410	6.286472
407.000000	0.002202	0.008526	6.286472
408.000000	0.002150	0.006727	6.286472
409.000000	0.002074	-0.022088	6.286472
410.000000	0.001980	-0.008397	6.286472
411.000000	0.001886	0.010230	6.286472
412.000000	0.001797	-0.006665	6.286472
413.000000	0.001729	0.008569	6.286472
414.000000	0.001702	0.015277	6.286472
415.000000	0.001690	-0.003365	6.286472
416.000000	0.001657	-0.006868	6.286472
417.000000	0.001609	-0.010017	6.286472
418.000000	0.001557	0.001901	6.286472
419.000000	0.001484	-0.003548	6.286472
420.000000	0.001380	-0.010087	6.286472
421.000000	0.001272	-0.012059	6.286472
422.000000	0.001172	-0.005187	6.286472
423.000000	0.001072	0.001700	6.286472
424.000000	0.000985	-0.012107	6.286472
425.000000	0.000913	-0.011801	6.286472
426.000000	0.000849	0.008578	6.286472
427.000000	0.000809	-0.010255	6.286472
428.000000	0.000799	-0.000152	6.286472
429.000000	0.000801	0.010387	6.286472
430.000000	0.000802	-0.006871	6.286472
431.000000	0.000798	0.003150	6.286472
432.000000	0.000786	-0.010468	6.286472
433.000000	0.000770	0.012020	6.286472
434.000000	0.000758	-0.010304	6.286472
435.000000	0.000746	-0.001612	6.286472
436.000000	0.000738	-0.022202	6.286472
437.000000	0.000758	-0.005213	6.286472
438.000000	0.000813	0.010370	6.286472
439.000000	0.000884	0.006845	6.286472
440.000000	0.000944	-0.008589	6.286472
441.000000	0.000981	0.012016	6.286472
442.000000	0.001016	0.008444	6.286472
443.000000	0.001055	0.001662	6.286472
444.000000	0.001094	-0.020662	6.286472
445.000000	0.001129	0.011994	6.286472
446.000000	0.001158	0.005140	6.286472
447.000000	0.001181	-0.003418	6.286472
448.000000	0.001188	0.001616	6.286472
449.000000	0.001182	0.001769	6.286472
450.000000	0.001173	-0.010349	6.286472
451.000000	0.001161	-0.010474	6.286472
452.000000	0.001135	-0.006908	6.286472
453.000000	0.001098	0.001725	6.286472
454.000000	0.001053	-0.012040	6.286472
455.000000	0.001002	-0.010277	6.286472
456.000000	0.000952	-0.003461	6.286472
457.000000	0.000902	0.008468	6.286472
458.000000	0.000848	-0.000190	6.286472
459.000000	0.000798	-0.000370	6.286472
460.000000	0.000749	0.012108	6.286472
461.000000	0.000700	-0.010444	6.286472
462.000000	0.000671	0.006944	6.286472
463.000000	0.000672	-0.006817	6.286472
464.000000	0.000689	0.000119	6.286472
465.000000	0.000716	0.008720	6.286472
466.000000	0.000752	-0.001548	6.286472
467.000000	0.000785	0.003496	6.286472
468.000000	0.000809	0.010111	6.286472
469.000000	0.000837	0.003365	6.286472
470.000000	0.000876	0.010283	6.286472
471.000000	0.000919	-0.005257	6.286472
472.000000	0.000964	-0.005063	6.286472
473.000000	0.001008	0.006877	6.286472
474.000000	0.001059	0.006865	6.286472
475.000000	0.001118	-0.005074	6.286472
476.000000	0.001176	-0.008471	6.286472
477.000000	0.001223	0.003599	6.286472
478.000000	0.001264	0.012074	6.286472
479.000000	0.001318	0.018963	6.286472
480.000000	0.001394	-0.012025	6.286472
481.000000	0.001487	0.001824	6.286472
482.000000	0.001591	-0.005156	6.286472
483.000000	0.001703	0.010431	6.286472
484.000000	0.001827	0.003409	6.286472
485.000000	0.001948	-0.001704	6.286472
486.000000	0.002041	0.001872	6.286472
487.000000	0.002104	-0.006776	6.286472
488.000000	0.002145	0.001743	6.286472
489.000000	0.002170	-0.011995	6.286472
490.000000	0.002184	0.005125	6.286472
491.000000	0.002192	-0.001609	6.286472
492.000000	0.002205	-0.003442	6.286472
493.000000	0.002225	-0.008464	6.286472
494.000000	0.002241	-0.003286	6.286472
495.000000	0.002241	0.006892	6.286472
496.000000	0.002217	0.008491	6.286472
497.000000	0.002184	0.001873	6.286472
498.000000	0.002160	0.011992	6.286472
499.000000	0.002152	0.003517	6.286472
500.000000	0.002154	-0.001611	6.286472
501.000000	0.002160	-0.010169	6.286472
502.000000	0.002172	-0.001469	6.286472
503.000000	0.002189	-0.005146	6.286472
504.000000	0.002203	-0.001748	6.286472
505.000000	0.002209	-0.003242	6.286472
506.000000	0.002206	0.001642	6.286472
507.000000	0.002208	-0.005197	6.286472
508.000000	0.002223	-0.005188	6.286472
509.000000	0.002243	-0.010355	6.286472
510.000000	0.002259	0.003564	6.286472
511.000000	0.002278	0.003594	6.286472
512.000000	0.002296	-0.005129	6.286472
513.000000	0.002309	0.008589	6.286472
514.000000	0.002322	-0.001313	6.286472
515.000000	0.002344	0.003517	6.286472
516.000000	0.002388	0.006862	6.286472
517.000000	0.002452	0.010355	6.286472
518.000000	0.002519	-0.003439	6.286472
519.000000	0.002589	0.001555	6.286472
520.000000	0.002666	0.012173	6.286472
521.000000	0.002754	-0.001699	6.286472
522.000000	0.002857	0.008589	6.286472
523.000000	0.002979	9.686657E-5	6.286472
524.000000	0.003118	-0.008578	6.286472
525.000000	0.003248	0.012025	6.286472
526.000000	0.003379	-0.003391	6.286472
527.000000	0.003533	0.008654	6.286472
528.000000	0.003685	0.010474	6.286472
529.000000	0.003811	-0.001669	6.286472
530.000000	0.003899	0.001791	6.286472
531.000000	0.003946	1.146186E-5	6.286472
532.000000	0.003969	-0.003424	6.286472
533.000000	0.003968	0.001714	6.286472
534.000000	0.003957	-0.005154	6.286472
535.000000	0.003949	0.005260	6.286472
536.000000	0.003927	0.004928	6.286472
537.000000	0.003879	-0.010236	6.286472
538.000000	0.003824	-0.010126	6.286472
539.000000	0.003768	0.010494	6.286472
540.000000	0.003704	0.008543	6.286472
541.000000	0.003627	-0.001579	6.286472
542.000000	0.003540	-0.003547	6.286472
543.000000	0.003453	0.006893	6.286472
544.000000	0.003362	-0.010163	6.286472
545.000000	0.003266	-0.001760	6.286472
546.000000	0.003183	-0.001760	6.286472
547.000000	0.003105	0.015573	6.286472
548.000000	0.003020	-0.006688	6.286472
549.000000	0.002930	0.010275	6.286472
550.000000	0.002837	-0.005267	6.286472
551.000000	0.002743	0.006955	6.286472
552.000000	0.002646	0.003268	6.286472
553.000000	0.002550	-0.008385	6.286472
554.000000	0.002467	0.006803	6.286472
555.000000	0.002390	0.003314	6.286472
556.000000	0.002308	3.863453E-5	6.286472
557.000000	0.002217	-0.006890	6.286472
558.000000	0.002134	-0.003375	6.286472
559.000000	0.002075	0.008472	6.286472
560.000000	0.002026	-0.003487	6.286472
561.000000	0.001990	-0.007023	6.286472
562.000000	0.001969	0.008538	6.286472
563.000000	0.001932	-0.001932	6.286472
564.000000	0.001865	-0.015356	6.286472
565.000000	0.001775	-0.008659	6.286472
566.000000	0.001666	-0.011938	6.286472
567.000000	0.001543	-0.001869	6.286472
568.000000	0.001420	-0.012196	6.286472
569.000000	0.001303	-0.008490	6.286472
570.000000	0.001197	0.015242	6.286472
571.000000	0.001114	0.001563	6.286472
572.000000	0.001050	0.006777	6.286472
573.000000	0.001008	0.001594	6.286472
574.000000	0.000984	-0.006877	6.286472
575.000000	0.000975	0.011689	6.286472
576.000000	0.000981	-0.005289	6.286472
577.000000	0.001006	-0.003675	6.286472
578.000000	0.001059	-0.003556	6.286472
579.000000	0.001141	0.009959	6.286472
580.000000	0.001237	-0.003540	6.286472
581.000000	0.001336	0.013516	6.286472
582.000000	0.001442	-0.001887	6.286472
583.000000	0.001571	0.003014	6.286472
584.000000	0.001725	-0.010411	6.286472
585.000000	0.001880	0.010078	6.286472
586.000000	0.002032	0.006746	6.286472
587.000000	0.002201	0.001348	6.286472
588.000000	0.002387	0.001484	6.286472
589.000000	0.002574	0.006895	6.286472
590.000000	0.002756	0.001653	6.286472
591.000000	0.002937	0.013567	6.286472
592.000000	0.003123	0.010485	6.286472
593.000000	0.003317	-0.000237	6.286472
594.000000	0.003511	0.017277	6.286472
595.000000	0.003700	0.003363	6.286472
596.000000	0.003890	0.013576	6.286472
597.000000	0.004081	0.003312	6.286472
598.000000	0.004265	0.006590	6.286472
599.000000	0.004436	0.006793	6.286472
600.000000	0.004597	0.001695	6.286472
601.000000	0.004755	0.010298	6.286472
602.000000	0.004918	0.015230	6.286472
603.000000	0.005081	0.015191	6.286472
604.000000	0.005236	-0.003140	6.286472
605.000000	0.005387	0.020354	6.286472
606.000000	0.005542	-0.005290	6.286472
607.000000	0.005686	0.008509	6.286472
608.000000	0.005805	-0.005341	6.286472
609.000000	0.005905	3.595832E-5	6.286472
610.000000	0.005990	-0.008665	6.286472
611.000000	0.006061	-0.001834	6.286472
612.000000	0.006130	-0.000125	6.286472
613.000000	0.006208	-0.000155	6.286472
614.000000	0.006282	0.010249	6.286472
615.000000	0.006325	0.020592	6.286472
616.000000	0.006334	-0.013709	6.286472
617.000000	0.006324	0.006735	6.286472
618.000000	0.006306	-0.006829	6.286472
619.000000	0.006276	0.006869	6.286472
620.000000	0.006235	0.003455	6.286472
621.000000	0.006184	-0.007034	6.286472
622.000000	0.006105	-0.003605	6.286472
623.000000	0.006000	0.008399	6.286472
624.000000	0.005881	-0.013744	6.286472
625.000000	0.005747	0.010312	6.286472
626.000000	0.005604	0.005095	6.286472
627.000000	0.005453	0.008549	6.286472
628.000000	0.005303	0.003301	6.286472
629.000000	0.005164	-0.005139	6.286472
630.000000	0.005025	0.005016	6.286472
631.000000	0.004886	0.000214	6.286472
632.000000	0.004749	0.001404	6.286472
633.000000	0.004612	0.005001	6.286472
634.000000	0.004477	0.015424	6.286472
635.000000	0.004346	0.006912	6.286472
636.000000	0.004221	0.018972	6.286472
637.000000	0.004111	0.003231	6.286472
638.000000	0.004016	-0.003505	6.286472
639.000000	0.003933	1.802180E-5	6.286472
640.000000	0.003860	-0.005244	6.286472
641.000000	0.003806	-0.010375	6.286472
642.000000	0.003771	-0.015509	6.286472
643.000000	0.003749	0.006722	6.286472
644.000000	0.003737	0.001542	6.286472
645.000000	0.003730	0.003409	6.286472
646.000000	0.003723	-0.006778	6.286472
647.000000	0.003715	-0.006999	6.286472
648.000000	0.003694	0.003670	6.286472
649.000000	0.003641	-0.005388	6.286472
650.000000	0.003560	0.000144	6.286472
651.000000	0.003470	-0.008707	6.286472
652.000000	0.003391	0.001479	6.286472
653.000000	0.003343	0.011596	6.286472
654.000000	0.003330	0.013677	6.286472
655.000000	0.003339	-0.010376	6.286472
656.000000	0.003351	-0.008883	6.286472
657.000000	0.003365	0.010199	6.286472
658.000000	0.003387	0.003287	6.286472
659.000000	0.003418	-0.003672	6.286472
660.000000	0.003460	0.008181	6.286472
661.000000	0.003514	0.008461	6.286472
662.000000	0.003568	0.008445	6.286472
663.000000	0.003621	0.008470	6.286472
664.000000	0.003682	-0.005319	6.286472
665.000000	0.003753	0.001732	6.286472
666.000000	0.003826	-0.001857	6.286472
667.000000	0.003901	-0.006941	6.286472
668.000000	0.003989	0.017046	6.286472
669.000000	0.004092	-0.001941	6.286472
670.000000	0.004206	0.008444	6.286472
671.000000	0.004306	-0.000270	6.286472
672.000000	0.004377	-0.001919	6.286472
673.000000	0.004442	0.006803	6.286472
674.000000	0.004520	0.006778	6.286472
675.000000	0.004600	0.010087	6.286472
676.000000	0.004677	0.039695	6.286472
677.000000	0.004750	0.010330	6.286472
678.000000	0.004822	0.005014	6.286472
679.000000	0.004906	0.008568	6.286472
680.000000	0.005008	-0.007003	6.286472
681.000000	0.005116	0.011764	6.286472
682.000000	0.005219	-0.008385	6.286472
683.000000	0.005319	0.008434	6.286472
684.000000	0.005423	0.016887	6.286472
685.000000	0.005531	0.008311	6.286472
686.000000	0.005648	0.001454	6.286472
687.000000	0.005790	0.001295	6.286472
688.000000	0.005945	0.016954	6.286472
689.000000	0.006085	-0.015561	6.286472
690.000000	0.006201	0.001879	6.286472
691.000000	0.006310	0.001370	6.286472
692.000000	0.006432	0.008394	6.286472
693.000000	0.006564	4.343421E-5	6.286472
694.000000	0.006689	-0.010486	6.286472
695.000000	0.006810	-0.003713	6.286472
696.000000	0.006929	0.008544	6.286472
697.000000	0.007049	0.013779	6.286472
698.000000	0.007159	0.006604	6.286472
699.000000	0.007255	0.020359	6.286472
700.000000	0.007351	-0.008830	6.286472
701.000000	0.007461	-0.003317	6.286472
702.000000	0.007577	0.005252	6.286472
703.000000	0.007703	0.025661	6.286472
704.000000	0.007854	0.006795	6.286472
705.000000	0.008005	-0.010247	6.286472
706.000000	0.008139	-0.013738	6.286472
707.000000	0.008268	-0.006997	6.286472
708.000000	0.008399	0.006817	6.286472
709.000000	0.008524	0.001717	6.286472
710.000000	0.008639	0.011793	6.286472
711.000000	0.008749	-0.008435	6.286472
712.000000	0.008845	0.001705	6.286472
713.000000	0.008919	-0.001654	6.286472
714.000000	0.008979	-0.013770	6.286472
715.000000	0.009029	0.010275	6.286472
716.000000	0.009077	-0.003741	6.286472
717.000000	0.009132	0.007001	6.286472
718.000000	0.009201	0.001781	6.286472
719.000000	0.009291	0.012002	6.286472
720.000000	0.009400	0.003299	6.286472
721.000000	0.009525	0.008545	6.286472
722.000000	0.009665	-1.741787E-5	6.286472
723.000000	0.009805	0.005431	6.286472
724.000000	0.009937	-0.036275	6.286472
725.000000	0.010073	-0.008610	6.286472
726.000000	0.010220	0.010284	6.286472
727.000000	0.010373	-0.001442	6.286472
728.000000	0.010528	-0.015425	6.286472
729.000000	0.010692	-0.018571	6.286472
730.000000	0.010872	-0.001624	6.286472
731.000000	0.011071	-0.003165	6.286472
732.000000	0.011289	6.108897E-5	6.286472
733.000000	0.011515	0.005204	6.286472
734.000000	0.011760	-0.005138	6.286472
735.000000	0.012044	-0.006818	6.286472
736.000000	0.012354	0.000120	6.286472
737.000000	0.012673	0.015689	6.286472
738.000000	0.012985	-0.003328	6.286472
739.000000	0.013288	0.003616	6.286472
740.000000	0.013593	0.005274	6.286472
741.000000	0.013902	-0.004788	6.286472
742.000000	0.014210	0.001815	6.286472
743.000000	0.014517	-0.008251	6.286472
744.000000	0.014822	-0.008386	6.286472
745.000000	0.015147	0.010512	6.286472
746.000000	0.015502	-0.004932	6.286472
747.000000	0.015874	-0.008132	6.286472
748.000000	0.016256	-0.008274	6.286472
749.000000	0.016646	0.003798	6.286472
750.000000	0.017036	-0.023557	6.286472
751.000000	0.017424	0.000227	6.286472
752.000000	0.017822	0.003657	6.286472
753.000000	0.018249	0.022381	6.286472
754.000000	0.018715	-0.013160	6.286472
755.000000	0.019207	0.011074	6.286472
756.000000	0.019707	0.000335	6.286472
757.000000	0.020219	0.017629	6.286472
758.000000	0.020739	-0.013113	6.286472
759.000000	0.021252	-0.009962	6.286472
760.000000	0.021747	-0.009988	6.286472
761.000000	0.022225	-0.001182	6.286472
762.000000	0.022700	0.000414	6.286472
763.000000	0.023186	0.010777	6.286472
764.000000	0.023673	0.002397	6.286472
765.000000	0.024141	0.000560	6.286472
766.000000	0.024589	0.000346	6.286472
767.000000	0.025026	0.002281	6.286472
768.000000	0.025459	-0.008123	6.286472
769.000000	0.025878	0.000730	6.286472
770.000000	0.026282	0.004097	6.286472
771.000000	0.026678	0.005876	6.286472
772.000000	0.027066	-0.014763	6.286472
773.000000	0.027440	-0.004256	6.286472
774.000000	0.027794	-0.002575	6.286472
775.000000	0.028135	0.002239	6.286472
776.000000	0.028471	-0.011575	6.286472
777.000000	0.028800	0.002481	6.286472
778.000000	0.029138	0.004079	6.286472
779.000000	0.029500	-0.014984	6.286472
780.000000	0.029872	-0.016135	6.286472
781.000000	0.030234	-0.007764	6.286472
782.000000	0.030594	-0.009426	6.286472
783.000000	0.030972	-0.001026	6.286472
784.000000	0.031381	-0.000783	6.286472
785.000000	0.031821	-0.021532	6.286472
786.000000	0.032268	0.002420	6.286472
787.000000	0.032694	-0.004417	6.286472
788.000000	0.033101	0.002462	6.286472
789.000000	0.033507	-0.012915	6.286472
790.000000	0.033915	-0.019809	6.286472
791.000000	0.034333	-0.012670	6.286472
792.000000	0.034774	-0.005804	6.286472
793.000000	0.035243	-0.006097	6.286472
794.000000	0.035736	0.011070	6.286472
795.000000	0.036242	-0.009544	6.286472
796.000000	0.036746	-0.000841	6.286472
797.000000	0.037246	-0.017902	6.286472
798.000000	0.037737	-0.005849	6.286472
799.000000	0.038228	0.011290	6.286472
800.000000	0.038728	-0.004376	6.286472
801.000000	0.039228	-0.016281	6.286472
802.000000	0.039710	-0.002352	6.286472
803.000000	0.040174	-0.005994	6.286472
804.000000	0.040637	-0.002320	6.286472
805.000000	0.041112	-0.002598	6.286472
806.000000	0.041592	-0.005797	6.286472
807.000000	0.042070	-0.007504	6.286472
808.000000	0.042549	0.006255	6.286472
809.000000	0.043038	-0.000904	6.286472
810.000000	0.043537	-0.007389	6.286472
811.000000	0.044041	-0.009226	6.286472
812.000000	0.044554	0.001178	6.286472
813.000000	0.045094	-0.002337	6.286472
814.000000	0.045668	-0.015992	6.286472
815.000000	0.046249	-0.007526	6.286472
816.000000	0.046813	-0.000812	6.286472
817.000000	0.047363	-0.017632	6.286472
818.000000	0.047914	-0.010752	6.286472
819.000000	0.048473	-0.024483	6.286472
820.000000	0.049039	-0.009394	6.286472
821.000000	0.049608	-0.003929	6.286472
822.000000	0.050179	0.011508	6.286472
823.000000	0.050759	0.003071	6.286472
824.000000	0.051341	-0.017781	6.286472
825.000000	0.051915	-0.007404	6.286472
826.000000	0.052472	-0.022692	6.286472
827.000000	0.053018	-0.007203	6.286472
828.000000	0.053575	-0.017616	6.286472
829.000000	0.054159	-0.007424	6.286472
830.000000	0.054757	0.003088	6.286472
831.000000	0.055348	-0.019296	6.286472
832.000000	0.055934	-0.010762	6.286472
833.000000	0.056523	-0.024135	6.286472
834.000000	0.057126	0.002933	6.286472
835.000000	0.057748	-0.005564	6.286472
836.000000	0.058377	-0.008930	6.286472
837.000000	0.059029	-0.012254	6.286472
838.000000	0.059726	-0.008766	6.286472
839.000000	0.060464	-0.017303	6.286472
840.000000	0.061237	-0.012200	6.286472
841.000000	0.062059	-0.003378	6.286472
842.000000	0.062945	-0.015424	6.286472
843.000000	0.063898	-0.003268	6.286472
844.000000	0.064918	-0.013517	6.286472
845.000000	0.066004	-0.003320	6.286472
846.000000	0.067157	-0.004942	6.286472
847.000000	0.068388	0.000400	6.286472
848.000000	0.069696	-0.009392	6.286472
849.000000	0.071069	0.008819	6.286472
850.000000	0.072505	0.012283	6.286472
851.000000	0.074009	0.010856	6.286472
852.000000	0.075588	0.005486	6.286472
853.000000	0.077237	0.007614	6.286472
854.000000	0.078937	0.002331	6.286472
855.000000	0.080690	0.003838	6.286472
856.000000	0.082505	0.007458	6.286472
857.000000	0.084379	0.004287	6.286472
858.000000	0.086310	-0.001022	6.286472
859.000000	0.088295	0.004162	6.286472
860.000000	0.090327	0.019539	6.286472
861.000000	0.092401	0.009313	6.286472
862.000000	0.094520	0.021410	6.286472
863.000000	0.096680	0.021790	6.286472
864.000000	0.098883	0.017962	6.286472
865.000000	0.101137	0.025375	6.286472
866.000000	0.103443	0.025069	6.286472
867.000000	0.105793	0.014916	6.286472
868.000000	0.108172	-0.002175	6.286472
869.000000	0.110576	0.020151	6.286472
870.000000	0.113007	0.025367	6.286472
871.000000	0.115447	0.025363	6.286472
872.000000	0.117901	0.004730	6.286472
873.000000	0.120373	0.006708	6.286472
874.000000	0.122854	0.022189	6.286472
875.000000	0.125339	0.004959	6.286472
876.000000	0.127822	0.012181	6.286472
877.000000	0.130292	0.019096	6.286472
878.000000	0.132765	0.003679	6.286472
879.000000	0.135249	0.014066	6.286472
880.000000	0.137730	0.022288	6.286472
881.000000	0.140206	0.024489	6.286472
882.000000	0.142684	0.015824	6.286472
883.000000	0.145170	0.014124	6.286472
884.000000	0.147670	0.029774	6.286472
885.000000	0.150185	0.010901	6.286472
886.000000	0.152716	0.014277	6.286472
887.000000	0.155263	0.021282	6.286472
888.000000	0.157805	0.024863	6.286472
889.000000	0.160334	0.012872	6.286472
890.000000	0.162865	0.009336	6.286472
891.000000	0.165402	0.019915	6.286472
892.000000	0.167933	0.012995	6.286472
893.000000	0.170456	0.016373	6.286472
894.000000	0.172970	0.026644	6.286472
895.000000	0.175479	0.014807	6.286472
896.000000	0.177970	0.011523	6.286472
897.000000	0.180431	0.018160	6.286472
898.000000	0.182865	0.011267	6.286472
899.000000	0.185271	0.014945	6.286472
900.000000	0.187641	0.007875	6.286472
901.000000	0.189962	0.021651	6.286472
902.000000	0.192217	0.009815	6.286472
903.000000	0.194388	0.025243	6.286472
904.000000	0.196464	0.016592	6.286472
905.000000	0.198463	0.009912	6.286472
906.000000	0.200402	0.013075	6.286472
907.000000	0.202285	0.003059	6.286472
908.000000	0.204133	0.008200	6.286472
909.000000	0.205947	0.011895	6.286472
910.000000	0.207720	0.015250	6.286472
911.000000	0.209474	0.013601	6.286472
912.000000	0.211229	0.004919	6.286472
913.000000	0.212985	0.003396	6.286472
914.000000	0.214748	0.008442	6.286472
915.000000	0.216521	-0.003195	6.286472
916.000000	0.218293	0.017194	6.286472
917.000000	0.220082	0.000274	6.286472
918.000000	0.221920	-0.001426	6.286472
919.000000	0.223806	0.012574	6.286472
920.000000	0.225721	0.002035	6.286472
921.000000	0.227659	0.000578	6.286472
922.000000	0.229622	0.000189	6.286472
923.000000	0.231612	0.017752	6.286472
924.000000	0.233629	-0.001132	6.286472
925.000000	0.235680	0.024663	6.286472
926.000000	0.237765	0.012575	6.286472
927.000000	0.239879	0.004173	6.286472
928.000000	0.242017	0.017794	6.286472
929.000000	0.244180	-0.000902	6.286472
930.000000	0.246372	-0.018016	6.286472
931.000000	0.248591	0.024894	6.286472
932.000000	0.250834	0.012936	6.286472
933.000000	0.253094	0.013327	6.286472
934.000000	0.255364	0.007944	6.286472
935.000000	0.257644	0.018231	6.286472
936.000000	0.259939	0.013315	6.286472
937.000000	0.262253	0.018605	6.286472
938.000000	0.264584	0.022026	6.286472
939.000000	0.266935	-0.013697	6.286472
940.000000	0.269304	0.018585	6.286472
941.000000	0.271684	0.031039	6.286472
942.000000	0.274073	0.001774	6.286472
943.000000	0.276472	0.003574	6.286472
944.000000	0.278880	0.012078	6.286472
945.000000	0.281301	0.008631	6.286472
946.000000	0.283738	0.013912	6.286472
947.000000	0.286183	0.003742	6.286472
948.000000	0.288623	0.024103	6.286472
949.000000	0.291041	0.017483	6.286472
950.000000	0.293429	0.007285	6.286472
951.000000	0.295788	-0.011583	6.286472
952.000000	0.298121	0.012581	6.286472
953.000000	0.300432	0.017766	6.286472
954.000000	0.302728	0.016178	6.286472
955.000000	0.305009	0.007551	6.286472
956.000000	0.307277	0.016122	6.286472
957.000000	0.309535	0.031545	6.286472
958.000000	0.311782	0.011320	6.286472
959.000000	0.314007	0.007587	6.286472
960.000000	0.316198	0.023726	6.286472
961.000000	0.318369	0.002584	6.286472
962.000000	0.320543	0.011442	6.286472
963.000000	0.322725	0.009586	6.286472
964.000000	0.324920	0.002921	6.286472
965.000000	0.327133	0.019923	6.286472
966.000000	0.329365	0.015045	6.286472
967.000000	0.331612	0.018583	6.286472
968.000000	0.333867	0.003395	6.286472
969.000000	0.336121	0.001500	6.286472
970.000000	0.338379	0.013696	6.286472
971.000000	0.340648	0.016921	6.286472
972.000000	0.342934	0.020726	6.286472
973.000000	0.345252	0.005220	6.286472
974.000000	0.347619	0.015739	6.286472
975.000000	0.350035	0.013743	6.286472
976.000000	0.352492	0.029803	6.286472
977.000000	0.354985	0.032852	6.286472
978.000000	0.357519	0.021046	6.286472
979.000000	0.360095	0.022682	6.286472
980.000000	0.362719	0.026376	6.286472
981.000000	0.365400	0.005899	6.286472
982.000000	0.368127	0.011065	6.286472
983.000000	0.370894	0.009611	6.286472
984.000000	0.373701	0.014820	6.286472
985.000000	0.376553	0.023070	6.286472
986.000000	0.379452	0.020004	6.286472
987.000000	0.382383	0.016302	6.286472
988.000000	0.385337	0.016645	6.286472
989.000000	0.388308	0.004709	6.286472
990.000000	0.391295	0.011424	6.286472
991.000000	0.394292	-0.001784	6.286472
992.000000	0.397304	0.009938	6.286472
993.000000	0.400336	0.015231	6.286472
994.000000	0.403379	-0.013731	6.286472
995.000000	0.406434	0.006964	6.286472
996.000000	0.409504	0.008793	6.286472
997.000000	0.412590	-0.006534	6.286472
998.000000	0.415694	0.027671	6.286472
999.000000	0.418809	0.007271	6.286472
1000.000000	0.421920	0.007333	6.286472
1001.000000	0.425020	0.026153	6.286472
1002.000000	0.428125	0.017846	6.286472
1003.000000	0.431249	0.017631	6.286472
1004.000000	0.434372	-0.000965	6.286472
1005.000000	0.437471	-0.006351	6.286472
1006.000000	0.440537	0.009447	6.286472
1007.000000	0.443582	-0.004165	6.286472
1008.000000	0.446608	-0.004060	6.286472
1009.000000	0.449614	-0.005827	6.286472
1010.000000	0.452600	0.004457	6.286472
1011.000000	0.455550	-0.000512	6.286472
1012.000000	0.458460	0.020084	6.286472
1013.000000	0.461322	0.002995	6.286472
1014.000000	0.464132	-0.003830	6.286472
1015.000000	0.466912	0.009559	6.286472
1016.000000	0.469680	0.004938	6.286472
1017.000000	0.472438	-0.000250	6.286472
1018.000000	0.475186	0.008467	6.286472
1019.000000	0.477919	-0.013898	6.286472
1020.000000	0.480637	-0.000104	6.286472
1021.000000	0.483336	-0.013641	6.286472
1022.000000	0.486007	0.008558	6.286472
1023.000000	0.488650	-0.000133	6.286472
1024.000000	0.491275	-0.020402	6.286472
1025.000000	0.493866	-0.018513	6.286472
1026.000000	0.496410	-0.004919	6.286472
1027.000000	0.498915	-0.008322	6.286472
1028.000000	0.501394	-0.015015	6.286472
1029.000000	0.503844	-0.008250	6.286472
1030.000000	0.506249	-0.008138	6.286472
1031.000000	0.508625	-0.030536	6.286472
1032.000000	0.511003	-0.004546	6.286472
1033.000000	0.513391	-0.010002	6.286472
1034.000000	0.515767	-0.016543	6.286472
1035.000000	0.518109	-0.014937	6.286472
1036.000000	0.520418	-0.008079	6.286472
1037.000000	0.522695	-0.019772	6.286472
1038.000000	0.524943	-0.028440	6.286472
1039.000000	0.527170	-0.028552	6.286472
1040.000000	0.529384	-0.018067	6.286472
1041.000000	0.531589	-0.036629	6.286472
1042.000000	0.533783	-0.014421	6.286472
1043.000000	0.535975	-0.007816	6.286472
1044.000000	0.538159	-0.033295	6.286472
1045.000000	0.540308	-0.017882	6.286472
1046.000000	0.542414	-0.018137	6.286472
1047.000000	0.544494	-0.019624	6.286472
1048.000000	0.546562	-0.033176	6.286472
1049.000000	0.548614	-0.026235	6.286472
1050.000000	0.550648	-0.026171	6.286472
1051.000000	0.552671	-0.051864	6.286472
1052.000000	0.554685	-0.026067	6.286472
1053.000000	0.556677	-0.031321	6.286472
1054.000000	0.558655	-0.026108	6.286472
1055.000000	0.560630	-0.034644	6.286472
1056.000000	0.562590	-0.039599	6.286472
1057.000000	0.564523	-0.039654	6.286472
1058.000000	0.566427	-0.034415	6.286472
1059.000000	0.568314	-0.042833	6.286472
1060.000000	0.570193	-0.042904	6.286472
1061.000000	0.572064	-0.025804	6.286472
1062.000000	0.573922	-0.034269	6.286472
1063.000000	0.575764	-0.053071	6.286472
1064.000000	0.577593	-0.039244	6.286472
1065.000000	0.579420	-0.027475	6.286472
1066.000000	0.581249	-0.037358	6.286472
1067.000000	0.583071	-0.025287	6.286472
1068.000000	0.584876	-0.035422	6.286472
1069.000000	0.586675	-0.027076	6.286472
1070.000000	0.588484	-0.016633	6.286472
1071.000000	0.590306	-0.045854	6.286472
1072.000000	0.592143	-0.049315	6.286472
1073.000000	0.594010	-0.045720	6.286472
1074.000000	0.595903	-0.038960	6.286472
1075.000000	0.597810	-0.043927	6.286472
1076.000000	0.599720	-0.052490	6.286472
1077.000000	0.601633	-0.042057	6.286472
1078.000000	0.603561	-0.038718	6.286472
1079.000000	0.605506	-0.035225	6.286472
1080.000000	0.607446	-0.046925	6.286472
1081.000000	0.609370	-0.048684	6.286472
1082.000000	0.611290	-0.034855	6.286472
1083.000000	0.613219	-0.039937	6.286472
1084.000000	0.615157	-0.031100	6.286472
1085.000000	0.617085	-0.045005	6.286472
1086.000000	0.618994	-0.052009	6.286472
1087.000000	0.620908	-0.039988	6.286472
1088.000000	0.622836	-0.061936	6.286472
1089.000000	0.624764	-0.041461	6.286472
1090.000000	0.626679	-0.058540	6.286472
1091.000000	0.628584	-0.049890	6.286472
1092.000000	0.630493	-0.055136	6.286472
1093.000000	0.632412	-0.041291	6.286472
1094.000000	0.634337	-0.027715	6.286472
1095.000000	0.636274	-0.052849	6.286472
1096.000000	0.638230	-0.051486	6.286472
1097.000000	0.640208	-0.049443	6.286472
1098.000000	0.642205	-0.049547	6.286472
1099.000000	0.644228	-0.053247	6.286472
1100.000000	0.646272	-0.049610	6.286472
1101.000000	0.648315	-0.056153	6.286472
1102.000000	0.650341	-0.044287	6.286472
1103.000000	0.652357	-0.040881	6.286472
1104.000000	0.654382	-0.051005	6.286472
1105.000000	0.656429	-0.033856	6.286472
1106.000000	0.658494	-0.050963	6.286472
1107.000000	0.660566	-0.047380	6.286472
1108.000000	0.662633	-0.052631	6.286472
1109.000000	0.664693	-0.031912	6.286472
1110.000000	0.666762	-0.050714	6.286472
1111.000000	0.668848	-0.052648	6.286472
1112.000000	0.670945	-0.043768	6.286472
1113.000000	0.673036	-0.055894	6.286472
1114.000000	0.675121	-0.053966	6.286472
1115.000000	0.677199	-0.054269	6.286472
1116.000000	0.679268	-0.058963	6.286472
1117.000000	0.681340	-0.045432	6.286472
1118.000000	0.683428	-0.050317	6.286472
1119.000000	0.685527	-0.052328	6.286472
1120.000000	0.687634	-0.055663	6.286472
1121.000000	0.689748	-0.060847	6.286472
1122.000000	0.691865	-0.058952	6.286472
1123.000000	0.693971	-0.060578	6.286472
1124.000000	0.696057	-0.065491	6.286472
1125.000000	0.698134	-0.074329	6.286472
1126.000000	0.700216	-0.055098	6.286472
1127.000000	0.702304	-0.056987	6.286472
1128.000000	0.704385	-0.051726	6.286472
1129.000000	0.706452	-0.033046	6.286472
1130.000000	0.708506	-0.037768	6.286472
1131.000000	0.710564	-0.039651	6.286472
1132.000000	0.712633	-0.062010	6.286472
1133.000000	0.714694	-0.049943	6.286472
1134.000000	0.716749	-0.060064	6.286472
1135.000000	0.718808	-0.053197	6.286472
1136.000000	0.720872	-0.052894	6.286472
1137.000000	0.722955	-0.049781	6.286472
1138.000000	0.725065	-0.063341	6.286472
1139.000000	0.727196	-0.063342	6.286472
1140.000000	0.729335	-0.073476	6.286472
1141.000000	0.731473	-0.057998	6.286472
1142.000000	0.733606	-0.053000	6.286472
1143.000000	0.735736	-0.056235	6.286472
1144.000000	0.737853	-0.061424	6.286472
1145.000000	0.739943	-0.076952	6.286472
1146.000000	0.742006	-0.056216	6.286472
1147.000000	0.744056	-0.066461	6.286472
1148.000000	0.746096	-0.078440	6.286472
1149.000000	0.748122	-0.050760	6.286472
1150.000000	0.750136	-0.052416	6.286472
1151.000000	0.752126	-0.073214	6.286472
1152.000000	0.754089	-0.073065	6.286472
1153.000000	0.756043	-0.069482	6.286472
1154.000000	0.757990	-0.057585	6.286472
1155.000000	0.759942	-0.059319	6.286472
1156.000000	0.761900	-0.065969	6.286472
1157.000000	0.763853	-0.065826	6.286472
1158.000000	0.765807	-0.062355	6.286472
1159.000000	0.767765	-0.081316	6.286472
1160.000000	0.769713	-0.057187	6.286472
1161.000000	0.771638	-0.055211	6.286472
1162.000000	0.773542	-0.051971	6.286472
1163.000000	0.775432	-0.063907	6.286472
1164.000000	0.777306	-0.057002	6.286472
1165.000000	0.779162	-0.062315	6.286472
1166.000000	0.781016	-0.058741	6.286472
1167.000000	0.782872	-0.056966	6.286472
1168.000000	0.784727	-0.056829	6.286472
1169.000000	0.786583	-0.081002	6.286472
1170.000000	0.788443	-0.062147	6.286472
1171.000000	0.790314	-0.051707	6.286472
1172.000000	0.792187	-0.041568	6.286472
1173.000000	0.794049	-0.067199	6.286472
1174.000000	0.795901	-0.063488	6.286472
1175.000000	0.797740	-0.060284	6.286472
1176.000000	0.799569	-0.053281	6.286472
1177.000000	0.801391	-0.053382	6.286472
1178.000000	0.803202	-0.046254	6.286472
1179.000000	0.805007	-0.075406	6.286472
1180.000000	0.806799	-0.046277	6.286472
1181.000000	0.808569	-0.061578	6.286472
1182.000000	0.810332	-0.054752	6.286472
1183.000000	0.812097	-0.066791	6.286472
1184.000000	0.813850	-0.073544	6.286472
1185.000000	0.815574	-0.075247	6.286472
1186.000000	0.817265	-0.063360	6.286472
1187.000000	0.818930	-0.071592	6.286472
1188.000000	0.820577	-0.066505	6.286472
1189.000000	0.822212	-0.051066	6.286472
1190.000000	0.823842	-0.057870	6.286472
1191.000000	0.825471	-0.064386	6.286472
1192.000000	0.827112	-0.070121	6.286472
1193.000000	0.828775	-0.073230	6.286472
1194.000000	0.830453	-0.069809	6.286472
1195.000000	0.832130	-0.057679	6.286472
1196.000000	0.833799	-0.059467	6.286472
1197.000000	0.835459	-0.062762	6.286472
1198.000000	0.837115	-0.063097	6.286472
1199.000000	0.838774	-0.062857	6.286472
1200.000000	0.840446	-0.045698	6.286472
1201.000000	0.842135	-0.054135	6.286472
1202.000000	0.843839	-0.062804	6.286472
1203.000000	0.845554	-0.060981	6.286472
1204.000000	0.847280	-0.059162	6.286472
1205.000000	0.849018	-0.055605	6.286472
1206.000000	0.850763	-0.062606	6.286472
1207.000000	0.852521	-0.036784	6.286472
1208.000000	0.854306	-0.050585	6.286472
1209.000000	0.856106	-0.055484	6.286472
1210.000000	0.857914	-0.059065	6.286472
1211.000000	0.859740	-0.054022	6.286472
1212.000000	0.861590	-0.064133	6.286472
1213.000000	0.863467	-0.055706	6.286472
1214.000000	0.865387	-0.048610	6.286472
1215.000000	0.867348	-0.055404	6.286472
1216.000000	0.869333	-0.046789	6.286472
1217.000000	0.871344	-0.064008	6.286472
1218.000000	0.873376	-0.050096	6.286472
1219.000000	0.875431	-0.043112	6.286472
1220.000000	0.877521	-0.067079	6.286472
1221.000000	0.879658	-0.060027	6.286472
1222.000000	0.881855	-0.056815	6.286472
1223.000000	0.884098	-0.044567	6.286472
1224.000000	0.886361	-0.056430	6.286472
1225.000000	0.888652	-0.041150	6.286472
1226.000000	0.890989	-0.053010	6.286472
1227.000000	0.893368	-0.045932	6.286472
1228.000000	0.895773	-0.054655	6.286472
1229.000000	0.898205	-0.052829	6.286472
1230.000000	0.900671	-0.059426	6.286472
1231.000000	0.903179	-0.056146	6.286472
1232.000000	0.905740	-0.050883	6.286472
1233.000000	0.908332	-0.067686	6.286472
1234.000000	0.910941	-0.048920	6.286472
1235.000000	0.913580	-0.040401	6.286472
1236.000000	0.916250	-0.057215	6.286472
1237.000000	0.918948	-0.060719	6.286472
1238.000000	0.921685	-0.046984	6.286472
1239.000000	0.924464	-0.055290	6.286472
1240.000000	0.927283	-0.063977	6.286472
1241.000000	0.930139	-0.051812	6.286472
1242.000000	0.933039	-0.065414	6.286472
1243.000000	0.935988	-0.050009	6.286472
1244.000000	0.938982	-0.054919	6.286472
1245.000000	0.942012	-0.055214	6.286472
1246.000000	0.945084	-0.041283	6.286472
1247.000000	0.948206	-0.051420	6.286472
1248.000000	0.951379	-0.058275	6.286472
1249.000000	0.954590	-0.056384	6.286472
1250.000000	0.957819	-0.056557	6.286472
1251.000000	0.961068	-0.068485	6.286472
1252.000000	0.964340	-0.061185	6.286472
1253.000000	0.967630	-0.063058	6.286472
1254.000000	0.970943	-0.061342	6.286472
1255.000000	0.974300	-0.043995	6.286472
1256.000000	0.977703	-0.056165	6.286472
1257.000000	0.981136	-0.059246	6.286472
1258.000000	0.984597	-0.060864	6.286472
1259.000000	0.988081	-0.050650	6.286472
1260.000000	0.991580	-0.057375	6.286472
1261.000000	0.995114	-0.067437	6.286472
1262.000000	0.998691	-0.052055	6.286472
1263.000000	1.002313	-0.074174	6.286472
1264.000000	1.005993	-0.058849	6.286472
1265.000000	1.009736	-0.046603	6.286472
1266.000000	1.013533	-0.044693	6.286472
1267.000000	1.017368	-0.067023	6.286472
1268.000000	1.021225	-0.055118	6.286472
1269.000000	1.025111	-0.068475	6.286472
1270.000000	1.029043	-0.049620	6.286472
1271.000000	1.033025	-0.063251	6.286472
1272.000000	1.037055	-0.056254	6.286472
1273.000000	1.041117	-0.061553	6.286472
1274.000000	1.045204	-0.061224	6.286472
1275.000000	1.049341	-0.059561	6.286472
1276.000000	1.053546	-0.040743	6.286472
1277.000000	1.057801	-0.057572	6.286472
1278.000000	1.062089	-0.062530	6.286472
1279.000000	1.066414	-0.043699	6.286472
1280.000000	1.070784	-0.052320	6.286472
1281.000000	1.075193	-0.064052	6.286472
1282.000000	1.079628	-0.060488	6.286472
1283.000000	1.084081	-0.050074	6.286472
1284.000000	1.088540	-0.046726	6.286472
1285.000000	1.092995	-0.063464	6.286472
1286.000000	1.097440	-0.058336	6.286472
1287.000000	1.101881	-0.059906	6.286472
1288.000000	1.106329	-0.039412	6.286472
1289.000000	1.110791	-0.051150	6.286472
1290.000000	1.115269	-0.065036	6.286472
1291.000000	1.119752	-0.080084	6.286472
1292.000000	1.124228	-0.052402	6.286472
1293.000000	1.128692	-0.059283	6.286472
1294.000000	1.133142	-0.050788	6.286472
1295.000000	1.137584	-0.064232	6.286472
1296.000000	1.142012	-0.064127	6.286472
1297.000000	1.146422	-0.065805	6.286472
1298.000000	1.150825	-0.069055	6.286472
1299.000000	1.155231	-0.061976	6.286472
1300.000000	1.159640	-0.048363	6.286472
1301.000000	1.164038	-0.048283	6.286472
1302.000000	1.168417	-0.068628	6.286472
1303.000000	1.172761	-0.063571	6.286472
1304.000000	1.177079	-0.054927	6.286472
1305.000000	1.181403	-0.063347	6.286472
1306.000000	1.185736	-0.071657	6.286472
1307.000000	1.190067	-0.049318	6.286472
1308.000000	1.194393	-0.059267	6.286472
1309.000000	1.198716	-0.059487	6.286472
1310.000000	1.203044	-0.050708	6.286472
1311.000000	1.207390	-0.067609	6.286472
1312.000000	1.211742	-0.060721	6.286472
1313.000000	1.216082	-0.067622	6.286472
1314.000000	1.220420	-0.072376	6.286472
1315.000000	1.224763	-0.077609	6.286472
1316.000000	1.229099	-0.070590	6.286472
1317.000000	1.233421	-0.080919	6.286472
1318.000000	1.237739	-0.084144	6.286472
1319.000000	1.242072	-0.076919	6.286472
1320.000000	1.246426	-0.068302	6.286472
1321.000000	1.250799	-0.083568	6.286472
1322.000000	1.255188	-0.059592	6.286472
1323.000000	1.259588	-0.073310	6.286472
1324.000000	1.263989	-0.078173	6.286472
1325.000000	1.268388	-0.078277	6.286472
1326.000000	1.272789	-0.079860	6.286472
1327.000000	1.277183	-0.084777	6.286472
1328.000000	1.281570	-0.076162	6.286472
1329.000000	1.285956	-0.072666	6.286472
1330.000000	1.290328	-0.077551	6.286472
1331.000000	1.294680	-0.091186	6.286472
1332.000000	1.299019	-0.078726	6.286472
1333.000000	1.303344	-0.095980	6.286472
1334.000000	1.307646	-0.090873	6.286472
1335.000000	1.311921	-0.101118	6.286472
1336.000000	1.316179	-0.102626	6.286472
1337.000000	1.320426	-0.099217	6.286472
1338.000000	1.324648	-0.081798	6.286472
1339.000000	1.328834	-0.095431	6.286472
1340.000000	1.332975	-0.090039	6.286472
1341.000000	1.337071	-0.090159	6.286472
1342.000000	1.341141	-0.086556	6.286472
1343.000000	1.345189	-0.067809	6.286472
1344.000000	1.349225	-0.100136	6.286472
1345.000000	1.353259	-0.100158	6.286472
1346.000000	1.357278	-0.092832	6.286472
1347.000000	1.361280	-0.089313	6.286472
1348.000000	1.365273	-0.097831	6.286472
1349.000000	1.369264	-0.094408	6.286472
1350.000000	1.373260	-0.089121	6.286472
1351.000000	1.377255	-0.087176	6.286472
1352.000000	1.381248	-0.097381	6.286472
1353.000000	1.385232	-0.095494	6.286472
1354.000000	1.389203	-0.093800	6.286472
1355.000000	1.393167	-0.086734	6.286472
1356.000000	1.397151	-0.076348	6.286472
1357.000000	1.401169	-0.105454	6.286472
1358.000000	1.405203	-0.081366	6.286472
1359.000000	1.409242	-0.079396	6.286472
1360.000000	1.413291	-0.084491	6.286472
1361.000000	1.417359	-0.086155	6.286472
1362.000000	1.421442	-0.072248	6.286472
1363.000000	1.425538	-0.106650	6.286472
1364.000000	1.429652	-0.082402	6.286472
1365.000000	1.433783	-0.098997	6.286472
1366.000000	1.437931	-0.071843	6.286472
1367.000000	1.442110	-0.082179	6.286472
1368.000000	1.446328	-0.077005	6.286472
1369.000000	1.450571	-0.074955	6.286472
1370.000000	1.454835	-0.073429	6.286472
1371.000000	1.459132	-0.074863	6.286472
1372.000000	1.463460	-0.055749	6.286472
1373.000000	1.467815	-0.062681	6.286472
1374.000000	1.472191	-0.059147	6.286472
1375.000000	1.476565	-0.081427	6.286472
1376.000000	1.480940	-0.067538	6.286472
1377.000000	1.485335	-0.050356	6.286472
1378.000000	1.489751	-0.058522	6.286472
1379.000000	1.494183	-0.053728	6.286472
1380.000000	1.498636	-0.065607	6.286472
1381.000000	1.503107	-0.063683	6.286472
1382.000000	1.507580	-0.047916	6.286472
1383.000000	1.512049	-0.043018	6.286472
1384.000000	1.516520	-0.059951	6.286472
1385.000000	1.521003	-0.051516	6.286472
1386.000000	1.525494	-0.047769	6.286472
1387.000000	1.529978	-0.046141	6.286472
1388.000000	1.534461	-0.040831	6.286472
1389.000000	1.538946	-0.056114	6.286472
1390.000000	1.543433	-0.047437	6.286472
1391.000000	1.547927	-0.035347	6.286472
1392.000000	1.552420	-0.059099	6.286472
1393.000000	1.556901	-0.060990	6.286472
1394.000000	1.561378	-0.019758	6.286472
1395.000000	1.565855	-0.038395	6.286472
1396.000000	1.570324	-0.043254	6.286472
1397.000000	1.574776	-0.048297	6.286472
1398.000000	1.579213	-0.034601	6.286472
1399.000000	1.583646	-0.032850	6.286472
1400.000000	1.588071	-0.036237	6.286472
1401.000000	1.592488	-0.046562	6.286472
1402.000000	1.596897	-0.023989	6.286472
1403.000000	1.601283	-0.042713	6.286472
1404.000000	1.605641	-0.024137	6.286472
1405.000000	1.609988	-0.030815	6.286472
1406.000000	1.614351	-0.032388	6.286472
1407.000000	1.618742	-0.025466	6.286472
1408.000000	1.623155	-0.028575	6.286472
1409.000000	1.627569	-0.033704	6.286472
1410.000000	1.631970	-0.021386	6.286472
1411.000000	1.636354	-0.026651	6.286472
1412.000000	1.640727	-0.021149	6.286472
1413.000000	1.645100	-0.000779	6.286472
1414.000000	1.649483	-0.029534	6.286472
1415.000000	1.653891	-0.017737	6.286472
1416.000000	1.658341	-0.014142	6.286472
1417.000000	1.662834	0.004687	6.286472
1418.000000	1.667359	0.001631	6.286472
1419.000000	1.671910	0.005108	6.286472
1420.000000	1.676486	-0.013525	6.286472
1421.000000	1.681081	0.000123	6.286472
1422.000000	1.685700	0.003729	6.286472
1423.000000	1.690342	0.005320	6.286472
1424.000000	1.695003	0.008998	6.286472
1425.000000	1.699694	-0.011509	6.286472
1426.000000	1.704419	0.007694	6.286472
1427.000000	1.709165	-0.000951	6.286472
1428.000000	1.713930	0.005963	6.286472
1429.000000	1.718723	0.007794	6.286472
1430.000000	1.723537	0.014970	6.286472
1431.000000	1.728354	0.011493	6.286472
1432.000000	1.733159	0.004821	6.286472
1433.000000	1.737955	0.015085	6.286472
1434.000000	1.742743	-5.498529E-5	6.286472
1435.000000	1.747521	0.029043	6.286472
1436.000000	1.752296	0.011988	6.286472
1437.000000	1.757078	0.029420	6.286472
1438.000000	1.761858	0.017506	6.286472
1439.000000	1.766626	0.008859	6.286472
1440.000000	1.771386	0.033079	6.286472
1441.000000	1.776155	0.034796	6.286472
1442.000000	1.780931	0.023251	6.286472
1443.000000	1.785710	0.036720	6.286472
1444.000000	1.790491	0.014739	6.286472
1445.000000	1.795263	0.024970	6.286472
1446.000000	1.800020	0.020142	6.286472
1447.000000	1.804772	0.025161	6.286472
1448.000000	1.809531	0.025538	6.286472
1449.000000	1.814296	0.044383	6.286472
1450.000000	1.819060	0.030831	6.286472
1451.000000	1.823836	0.058071	6.286472
1452.000000	1.828649	0.041523	6.286472
1453.000000	1.833505	0.019162	6.286472
1454.000000	1.838382	0.034567	6.286472
1455.000000	1.843285	0.024576	6.286472
1456.000000	1.848230	0.046883	6.286472
1457.000000	1.853182	0.037042	6.286472
1458.000000	1.858123	0.040408	6.286472
1459.000000	1.863078	0.047309	6.286472
1460.000000	1.868057	0.044084	6.286472
1461.000000	1.873054	0.042629	6.286472
1462.000000	1.878082	0.029014	6.286472
1463.000000	1.883163	0.058162	6.286472
1464.000000	1.888309	0.044697	6.286472
1465.000000	1.893510	0.053315	6.286472
1466.000000	1.898749	0.029470	6.286472
1467.000000	1.904019	0.055573	6.286472
1468.000000	1.909319	0.062373	6.286472
1469.000000	1.914634	0.067516	6.286472
1470.000000	1.919947	0.054053	6.286472
1471.000000	1.925252	0.052667	6.286472
1472.000000	1.930555	0.071421	6.286472
1473.000000	1.935873	0.063002	6.286472
1474.000000	1.941211	0.051089	6.286472
1475.000000	1.946549	0.063555	6.286472
1476.000000	1.951865	0.049978	6.286472
1477.000000	1.957178	0.067268	6.286472
1478.000000	1.962504	0.060552	6.286472
1479.000000	1.967829	0.067383	6.286472
1480.000000	1.973150	0.057307	6.286472
1481.000000	1.978481	0.049306	6.286472
1482.000000	1.983826	0.062847	6.286472
1483.000000	1.989185	0.071475	6.286472
1484.000000	1.994562	0.045889	6.286472
1485.000000	1.999952	0.054658	6.286472
1486.000000	2.005356	0.066584	6.286472
1487.000000	2.010780	0.054742	6.286472
1488.000000	2.016213	0.063591	6.286472
1489.000000	2.021647	0.063878	6.286472
1490.000000	2.027098	0.067147	6.286472
1491.000000	2.032573	0.058729	6.286472
1492.000000	2.038058	0.067256	6.286472
1493.000000	2.043536	0.053843	6.286472
1494.000000	2.048985	0.052245	6.286472
1495.000000	2.054397	0.059266	6.286472
1496.000000	2.059775	0.062665	6.286472
1497.000000	2.065127	0.078219	6.286472
1498.000000	2.070469	0.073266	6.286472
1499.000000	2.075806	0.080339	6.286472
1500.000000	2.081126	0.063037	6.286472
1501.000000	2.086412	0.073671	6.286472
1502.000000	2.091644	0.066752	6.286472
1503.000000	2.096817	0.078872	6.286472
1504.000000	2.101935	0.077362	6.286472
1505.000000	2.107022	0.061572	6.286472
1506.000000	2.112092	0.067065	6.286472
1507.000000	2.117132	0.068953	6.286472
1508.000000	2.122122	0.086245	6.286472
1509.000000	2.127069	0.084443	6.286472
1510.000000	2.131989	0.083116	6.286472
1511.000000	2.136875	0.095056	6.286472
1512.000000	2.141713	0.086557	6.286472
1513.000000	2.146511	0.079534	6.286472
1514.000000	2.151285	0.082901	6.286472
1515.000000	2.156032	0.093389	6.286472
1516.000000	2.160747	0.080043	6.286472
1517.000000	2.165431	0.083405	6.286472
1518.000000	2.170081	0.076299	6.286472
1519.000000	2.174697	0.090232	6.286472
1520.000000	2.179279	0.081788	6.286472
1521.000000	2.183839	0.104089	6.286472
1522.000000	2.188402	0.090471	6.286472
1523.000000	2.192977	0.104661	6.286472
1524.000000	2.197552	0.083738	6.286472
1525.000000	2.202110	0.089094	6.286472
1526.000000	2.206643	0.084110	6.286472
1527.000000	2.211160	0.114976	6.286472
1528.000000	2.215683	0.094540	6.286472
1529.000000	2.220220	0.115175	6.286472
1530.000000	2.224775	0.084198	6.286472
1531.000000	2.229351	0.110251	6.286472
1532.000000	2.233944	0.089814	6.286472
1533.000000	2.238546	0.086471	6.286472
1534.000000	2.243157	0.096913	6.286472
1535.000000	2.247783	0.105504	6.286472
1536.000000	2.252417	0.105475	6.286472
1537.000000	2.257059	0.100555	6.286472
1538.000000	2.261717	0.090581	6.286472
1539.000000	2.266395	0.105902	6.286472
1540.000000	2.271097	0.104184	6.286472
1541.000000	2.275823	0.099191	6.286472
1542.000000	2.280583	0.126842	6.286472
1543.000000	2.285386	0.108304	6.286472
1544.000000	2.290232	0.106487	6.286472
1545.000000	2.295111	0.104969	6.286472
1546.000000	2.300011	0.106704	6.286472
1547.000000	2.304942	0.108613	6.286472
1548.000000	2.309930	0.112209	6.286472
1549.000000	2.315001	0.122498	6.286472
1550.000000	2.320160	0.110572	6.286472
1551.000000	2.325389	0.109137	6.286472
1552.000000	2.330689	0.105638	6.286472
1553.000000	2.336059	0.119513	6.286472
1554.000000	2.341495	0.118246	6.286472
1555.000000	2.346993	0.114830	6.286472
1556.000000	2.352551	0.109799	6.286472
1557.000000	2.358168	0.099739	6.286472
1558.000000	2.363840	0.115177	6.286472
1559.000000	2.369560	0.105147	6.286472
1560.000000	2.375349	0.112071	6.286472
1561.000000	2.381224	0.103500	6.286472
1562.000000	2.387186	0.107117	6.286472
1563.000000	2.393235	0.112680	6.286472
1564.000000	2.399366	0.105501	6.286472
1565.000000	2.405573	0.119519	6.286472
1566.000000	2.411859	0.099127	6.286472
1567.000000	2.418233	0.111372	6.286472
1568.000000	2.424695	0.101099	6.286472
1569.000000	2.431242	0.110029	6.286472
1570.000000	2.437886	0.110157	6.286472
1571.000000	2.444638	0.101921	6.286472
1572.000000	2.451503	0.110409	6.286472
1573.000000	2.458464	0.107253	6.286472
1574.000000	2.465508	0.119649	6.286472
1575.000000	2.472648	0.104285	6.286472
1576.000000	2.479889	0.102975	6.286472
1577.000000	2.487216	0.104630	6.286472
1578.000000	2.494618	0.108236	6.286472
1579.000000	2.502096	0.108442	6.286472
1580.000000	2.509651	0.100371	6.286472
1581.000000	2.517270	0.098620	6.286472
1582.000000	2.524942	0.091859	6.286472
1583.000000	2.532667	0.092213	6.286472
1584.000000	2.540445	0.104316	6.286472
1585.000000	2.548275	0.102704	6.286472
1586.000000	2.556157	0.096086	6.286472
1587.000000	2.564089	0.101500	6.286472
1588.000000	2.572060	0.111995	6.286472
1589.000000	2.580056	0.094915	6.286472
1590.000000	2.588068	0.096798	6.286472
1591.000000	2.596097	0.110511	6.286472
1592.000000	2.604155	0.098896	6.286472
1593.000000	2.612227	0.111220	6.286472
1594.000000	2.620297	0.106103	6.286472
1595.000000	2.628365	0.111403	6.286472
1596.000000	2.636435	0.103029	6.286472
1597.000000	2.644489	0.099947	6.286472
1598.000000	2.652515	0.100059	6.286472
1599.000000	2.660526	0.103634	6.286472
1600.000000	2.668529	0.102122	6.286472
1601.000000	2.676522	0.107633	6.286472
1602.000000	2.684497	0.098910	6.286472
1603.000000	2.692450	0.111042	6.286472
1604.000000	2.700380	0.093929	6.286472
1605.000000	2.708296	0.116671	6.286472
1606.000000	2.716206	0.094489	6.286472
1607.000000	2.724107	0.101382	6.286472
1608.000000	2.731995	0.096538	6.286472
1609.000000	2.739871	0.098367	6.286472
1610.000000	2.747737	0.096819	6.286472
1611.000000	2.755597	0.084966	6.286472
1612.000000	2.763450	0.095426	6.286472
1613.000000	2.771298	0.083670	6.286472
1614.000000	2.779144	0.102504	6.286472
1615.000000	2.786981	0.095878	6.286472
1616.000000	2.794802	0.094506	6.286472
1617.000000	2.802612	0.086027	6.286472
1618.000000	2.810420	0.089706	6.286472
1619.000000	2.818215	0.077837	6.286472
1620.000000	2.826000	0.101806	6.286472
1621.000000	2.833795	0.105690	6.286472
1622.000000	2.841601	0.093825	6.286472
1623.000000	2.849413	0.095655	6.286472
1624.000000	2.857233	0.090796	6.286472
1625.000000	2.865050	0.087588	6.286472
1626.000000	2.872854	0.094248	6.286472
1627.000000	2.880658	0.098102	6.286472
1628.000000	2.888467	0.077696	6.286472
1629.000000	2.896279	0.086198	6.286472
1630.000000	2.904096	0.088221	6.286472
1631.000000	2.911901	0.086998	6.286472
1632.000000	2.919680	0.080157	6.286472
1633.000000	2.927432	0.083572	6.286472
1634.000000	2.935167	0.089115	6.286472
1635.000000	2.942902	0.075439	6.286472
1636.000000	2.950639	0.072162	6.286472
1637.000000	2.958364	0.072440	6.286472
1638.000000	2.966065	0.072523	6.286472
1639.000000	2.973733	0.055411	6.286472
1640.000000	2.981367	0.067639	6.286472
1641.000000	2.988994	0.079697	6.286472
1642.000000	2.996630	0.078356	6.286472
1643.000000	3.004269	0.069704	6.286472
1644.000000	3.011906	0.059903	6.286472
1645.000000	3.019543	0.061616	6.286472
1646.000000	3.027187	0.084011	6.286472
1647.000000	3.034835	0.065350	6.286472
1648.000000	3.042468	0.050080	6.286472
1649.000000	3.050087	0.065599	6.286472
1650.000000	3.057700	0.064213	6.286472
1651.000000	3.065302	0.060660	6.286472
1652.000000	3.072887	0.056010	6.286472
1653.000000	3.080445	0.064764	6.286472
1654.000000	3.087978	0.063032	6.286472
1655.000000	3.095485	0.059825	6.286472
1656.000000	3.102966	0.066661	6.286472
1657.000000	3.110425	0.054657	6.286472
1658.000000	3.117858	0.060372	6.286472
1659.000000	3.125268	0.058640	6.286472
1660.000000	3.132673	0.060518	6.286472
1661.000000	3.140068	0.059029	6.286472
1662.000000	3.147444	0.059352	6.286472
1663.000000	3.154815	0.076250	6.286472
1664.000000	3.162190	0.061256	6.286472
1665.000000	3.169577	0.074743	6.286472
1666.000000	3.176990	0.080319	6.286472
1667.000000	3.184432	0.073960	6.286472
1668.000000	3.191897	0.075903	6.286472
1669.000000	3.199374	0.075741	6.286472
1670.000000	3.206861	0.065563	6.286472
1671.000000	3.214356	0.086220	6.286472
1672.000000	3.221853	0.076341	6.286472
1673.000000	3.229354	0.065877	6.286472
1674.000000	3.236863	0.080056	6.286472
1675.000000	3.244372	0.083473	6.286472
1676.000000	3.251861	0.073354	6.286472
1677.000000	3.259322	0.095685	6.286472
1678.000000	3.266775	0.066853	6.286472
1679.000000	3.274233	0.070113	6.286472
1680.000000	3.281678	0.077438	6.286472
1681.000000	3.289092	0.087529	6.286472
1682.000000	3.296472	0.069036	6.286472
1683.000000	3.303813	0.075924	6.286472
1684.000000	3.311122	0.076183	6.286472
1685.000000	3.318409	0.076334	6.286472
1686.000000	3.325664	0.074473	6.286472
1687.000000	3.332891	0.086645	6.286472
1688.000000	3.340100	0.095599	6.286472
1689.000000	3.347289	0.097151	6.286472
1690.000000	3.354448	0.075085	6.286472
1691.000000	3.361577	0.095997	6.286472
1692.000000	3.368681	0.097513	6.286472
1693.000000	3.375764	0.092831	6.286472
1694.000000	3.382823	0.082681	6.286472
1695.000000	3.389880	0.084549	6.286472
1696.000000	3.396950	0.070920	6.286472
1697.000000	3.404025	0.091692	6.286472
1698.000000	3.411102	0.079856	6.286472
1699.000000	3.418186	0.095266	6.286472
1700.000000	3.425280	0.095653	6.286472
1701.000000	3.432397	0.088965	6.286472
1702.000000	3.439539	0.075336	6.286472
1703.000000	3.446689	0.108288	6.286472
1704.000000	3.453829	0.096343	6.286472
1705.000000	3.460960	0.113586	6.286472
1706.000000	3.468094	0.086517	6.286472
1707.000000	3.475233	0.095367	6.286472
1708.000000	3.482384	0.100496	6.286472
1709.000000	3.489562	0.088706	6.286472
1710.000000	3.496763	0.098963	6.286472
1711.000000	3.503985	0.076844	6.286472
1712.000000	3.511228	0.096121	6.286472
1713.000000	3.518491	0.116894	6.286472
1714.000000	3.525778	0.089767	6.286472
1715.000000	3.533095	0.110400	6.286472
1716.000000	3.540448	0.110719	6.286472
1717.000000	3.547829	0.112682	6.286472
1718.000000	3.555230	0.097243	6.286472
1719.000000	3.562645	0.112663	6.286472
1720.000000	3.570076	0.097592	6.286472
1721.000000	3.577525	0.111290	6.286472
1722.000000	3.584984	0.101476	6.286472
1723.000000	3.592438	0.094608	6.286472
1724.000000	3.599868	0.098263	6.286472
1725.000000	3.607273	0.106992	6.286472
1726.000000	3.614657	0.103824	6.286472
1727.000000	3.622008	0.107271	6.286472
1728.000000	3.629333	0.098881	6.286472
1729.000000	3.636638	0.100918	6.286472
1730.000000	3.643919	0.109363	6.286472
1731.000000	3.651179	0.116412	6.286472
1732.000000	3.658425	0.099597	6.286472
1733.000000	3.665666	0.108238	6.286472
1734.000000	3.672910	0.103239	6.286472
1735.000000	3.680136	0.106701	6.286472
1736.000000	3.687328	0.120612	6.286472
1737.000000	3.694480	0.103722	6.286472
1738.000000	3.701585	0.114136	6.286472
1739.000000	3.708644	0.112598	6.286472
1740.000000	3.715666	0.097281	6.286472
1741.000000	3.722659	0.105836	6.286472
1742.000000	3.729620	0.093936	6.286472
1743.000000	3.736536	0.104248	6.286472
1744.000000	3.743392	0.096125	6.286472
1745.000000	3.750190	0.096129	6.286472
1746.000000	3.756931	0.110051	6.286472
1747.000000	3.763616	0.110082	6.286472
1748.000000	3.770258	0.110076	6.286472
1749.000000	3.776873	0.103401	6.286472
1750.000000	3.783455	0.132935	6.286472
1751.000000	3.789988	0.093173	6.286472
1752.000000	3.796482	0.124514	6.286472
1753.000000	3.802952	0.109020	6.286472
1754.000000	3.809401	0.092097	6.286472
1755.000000	3.815819	0.124646	6.286472
1756.000000	3.822207	0.116251	6.286472
1757.000000	3.828565	0.101230	6.286472
1758.000000	3.834896	0.099567	6.286472
1759.000000	3.841218	0.109834	6.286472
1760.000000	3.847541	0.104676	6.286472
1761.000000	3.853875	0.110276	6.286472
1762.000000	3.860216	0.106823	6.286472
1763.000000	3.866554	0.118766	6.286472
1764.000000	3.872895	0.115701	6.286472
1765.000000	3.879245	0.093478	6.286472
1766.000000	3.885618	0.102264	6.286472
1767.000000	3.892009	0.117882	6.286472
1768.000000	3.898411	0.112788	6.286472
1769.000000	3.904825	0.128894	6.286472
1770.000000	3.911256	0.109736	6.286472
1771.000000	3.917721	0.103078	6.286472
1772.000000	3.924237	0.111729	6.286472
1773.000000	3.930811	0.101978	6.286472
1774.000000	3.937431	0.115525	6.286472
1775.000000	3.944092	0.110633	6.286472
1776.000000	3.950809	0.117625	6.286472
1777.000000	3.957595	0.119545	6.286472
1778.000000	3.964441	0.114319	6.286472
1779.000000	3.971344	0.107913	6.286472
1780.000000	3.978304	0.107895	6.286472
1781.000000	3.985313	0.111652	6.286472
1782.000000	3.992362	0.116887	6.286472
1783.000000	3.999444	0.122037	6.286472
1784.000000	4.006539	0.100185	6.286472
1785.000000	4.013658	0.105379	6.286472
1786.000000	4.020822	0.122733	6.286472
1787.000000	4.028027	0.102466	6.286472
1788.000000	4.035269	0.105970	6.286472
1789.000000	4.042540	0.099310	6.286472
1790.000000	4.049831	0.109842	6.286472
1791.000000	4.057140	0.114941	6.286472
1792.000000	4.064479	0.094591	6.286472
1793.000000	4.071851	0.111983	6.286472
1794.000000	4.079259	0.110237	6.286472
1795.000000	4.086695	0.097076	6.286472
1796.000000	4.094142	0.100335	6.286472
1797.000000	4.101599	0.124661	6.286472
1798.000000	4.109075	0.117638	6.286472
1799.000000	4.116574	0.119823	6.286472
1800.000000	4.124094	0.104296	6.286472
1801.000000	4.131634	0.116718	6.286472
1802.000000	4.139194	0.106601	6.286472
1803.000000	4.146771	0.118887	6.286472
1804.000000	4.154348	0.108589	6.286472
1805.000000	4.161919	0.120735	6.286472
1806.000000	4.169488	0.107105	6.286472
1807.000000	4.177054	0.096984	6.286472
1808.000000	4.184613	0.109189	6.286472
1809.000000	4.192172	0.105833	6.286472
1810.000000	4.199719	0.125111	6.286472
1811.000000	4.207232	0.123520	6.286472
1812.000000	4.214703	0.102682	6.286472
1813.000000	4.222146	0.122261	6.286472
1814.000000	4.229576	0.125719	6.286472
1815.000000	4.236985	0.113708	6.286472
1816.000000	4.244363	0.129319	6.286472
1817.000000	4.251707	0.131128	6.286472
1818.000000	4.259013	0.136517	6.286472
1819.000000	4.266273	0.122928	6.286472
1820.000000	4.273480	0.124894	6.286472
1821.000000	4.280635	0.143762	6.286472
1822.000000	4.287740	0.142294	6.286472
1823.000000	4.294804	0.136857	6.286472
1824.000000	4.301826	0.127065	6.286472
1825.000000	4.308794	0.137299	6.286472
1826.000000	4.315704	0.123687	6.286472
1827.000000	4.322554	0.146076	6.286472
1828.000000	4.329352	0.160029	6.286472
1829.000000	4.336110	0.141318	6.286472
1830.000000	4.342818	0.151692	6.286472
1831.000000	4.349459	0.144985	6.286472
1832.000000	4.356026	0.153807	6.286472
1833.000000	4.362530	0.150419	6.286472
1834.000000	4.368973	0.160853	6.286472
1835.000000	4.375359	0.157373	6.286472
1836.000000	4.381700	0.178136	6.286472
1837.000000	4.387992	0.181729	6.286472
1838.000000	4.394227	0.162878	6.286472
1839.000000	4.400405	0.171573	6.286472
1840.000000	4.406518	0.154683	6.286472
1841.000000	4.412557	0.158024	6.286472
1842.000000	4.418521	0.170261	6.286472
1843.000000	4.424422	0.163389	6.286472
1844.000000	4.430262	0.172244	6.286472
1845.000000	4.436043	0.175723	6.286472
1846.000000	4.441769	0.186205	6.286472
1847.000000	4.447442	0.167354	6.286472
1848.000000	4.453068	0.167278	6.286472
1849.000000	4.458655	0.179514	6.286472
1850.000000	4.464192	0.178089	6.286472
1851.000000	4.469676	0.184834	6.286472
1852.000000	4.475107	0.166085	6.286472
1853.000000	4.480487	0.197290	6.286472
1854.000000	4.485817	0.171678	6.286472
1855.000000	4.491103	0.171624	6.286472
1856.000000	4.496348	0.202727	6.286472
1857.000000	4.501553	0.183581	6.286472
1858.000000	4.506728	0.189027	6.286472
1859.000000	4.511870	0.182085	6.286472
1860.000000	4.516951	0.179133	6.286472
1861.000000	4.521952	0.186139	6.286472
1862.000000	4.526873	0.183947	6.286472
1863.000000	4.531740	0.198030	6.286472
1864.000000	4.536573	0.181328	6.286472
1865.000000	4.541364	0.184396	6.286472
1866.000000	4.546115	0.177575	6.286472
1867.000000	4.550824	0.188153	6.286472
1868.000000	4.555499	0.198496	6.286472
1869.000000	4.560145	0.174669	6.286472
1870.000000	4.564759	0.189983	6.286472
1871.000000	4.569333	0.197189	6.286472
1872.000000	4.573866	0.181561	6.286472
1873.000000	4.578370	0.198892	6.286472
1874.000000	4.582856	0.188770	6.286472
1875.000000	4.587318	0.202341	6.286472
1876.000000	4.591760	0.199428	6.286472
1877.000000	4.596188	0.178555	6.286472
1878.000000	4.600597	0.189157	6.286472
1879.000000	4.604988	0.203044	6.286472
1880.000000	4.609367	0.182608	6.286472
1881.000000	4.613734	0.189380	6.286472
1882.000000	4.618095	0.184475	6.286472
1883.000000	4.622462	0.189549	6.286472
1884.000000	4.626835	0.198533	6.286472
1885.000000	4.631215	0.189606	6.286472
1886.000000	4.635604	0.193538	6.286472
1887.000000	4.639999	0.200467	6.286472
1888.000000	4.644410	0.197174	6.286472
1889.000000	4.648844	0.195463	6.286472
1890.000000	4.653293	0.192107	6.286472
1891.000000	4.657747	0.205991	6.286472
1892.000000	4.662214	0.190569	6.286472
1893.000000	4.666714	0.197732	6.286472
1894.000000	4.671241	0.194431	6.286472
1895.000000	4.675780	0.192696	6.286472
1896.000000	4.680324	0.187762	6.286472
1897.000000	4.684876	0.215114	6.286472
1898.000000	4.689430	0.206652	6.286472
1899.000000	4.693987	0.196487	6.286472
1900.000000	4.698557	0.210284	6.286472
1901.000000	4.703142	0.196467	6.286472
1902.000000	4.707739	0.194880	6.286472
1903.000000	4.712338	0.202010	6.286472
1904.000000	4.716931	0.208942	6.286472
1905.000000	4.721516	0.205615	6.286472
1906.000000	4.726083	0.200721	6.286472
1907.000000	4.730621	0.193652	6.286472
1908.000000	4.735130	0.202661	6.286472
1909.000000	4.739607	0.202297	6.286472
1910.000000	4.744050	0.201119	6.286472
1911.000000	4.748458	0.192618	6.286472
1912.000000	4.752819	0.194449	6.286472
1913.000000	4.757135	0.199628	6.286472
1914.000000	4.761404	0.198070	6.286472
1915.000000	4.765624	0.213174	6.286472
1916.000000	4.769791	0.203318	6.286472
1917.000000	4.773905	0.217125	6.286472
1918.000000	4.777963	0.203355	6.286472
1919.000000	4.781946	0.194836	6.286472
1920.000000	4.785847	0.188244	6.286472
1921.000000	4.789682	0.201877	6.286472
1922.000000	4.793460	0.194935	6.286472
1923.000000	4.797176	0.198537	6.286472
1924.000000	4.800835	0.197067	6.286472
1925.000000	4.804448	0.200338	6.286472
1926.000000	4.808026	0.202226	6.286472
1927.000000	4.811584	0.202343	6.286472
1928.000000	4.815115	0.185229	6.286472
1929.000000	4.818612	0.190637	6.286472
1930.000000	4.822065	0.204376	6.286472
1931.000000	4.825464	0.199066	6.286472
1932.000000	4.828811	0.183713	6.286472
1933.000000	4.832106	0.190928	6.286472
1934.000000	4.835360	0.180453	6.286472
1935.000000	4.838577	0.201198	6.286472
1936.000000	4.841744	0.206391	6.286472
1937.000000	4.844862	0.168890	6.286472
1938.000000	4.847938	0.197834	6.286472
1939.000000	4.850955	0.186107	6.286472
1940.000000	4.853889	0.191214	6.286472
1941.000000	4.856759	0.182799	6.286472
1942.000000	4.859571	0.172394	6.286472
1943.000000	4.862311	0.182928	6.286472
1944.000000	4.864992	0.174318	6.286472
1945.000000	4.867642	0.186345	6.286472
1946.000000	4.870267	0.193182	6.286472
1947.000000	4.872849	0.174449	6.286472
1948.000000	4.875367	0.152173	6.286472
1949.000000	4.877819	0.184801	6.286472
1950.000000	4.880221	0.183125	6.286472
1951.000000	4.882585	0.181497	6.286472
1952.000000	4.884904	0.159190	6.286472
1953.000000	4.887171	0.181297	6.286472
1954.000000	4.889382	0.171330	6.286472
1955.000000	4.891538	0.159878	6.286472
1956.000000	4.893641	0.160967	6.286472
1957.000000	4.895694	0.159358	6.286472
1958.000000	4.897688	0.173359	6.286472
1959.000000	4.899626	0.152741	6.286472
1960.000000	4.901521	0.164655	6.286472
1961.000000	4.903367	0.166443	6.286472
1962.000000	4.905159	0.152836	6.286472
1963.000000	4.906902	0.176660	6.286472
1964.000000	4.908592	0.164673	6.286472
1965.000000	4.910226	0.166397	6.286472
1966.000000	4.911808	0.166527	6.286472
1967.000000	4.913334	0.158121	6.286472
1968.000000	4.914805	0.159826	6.286472
1969.000000	4.916233	0.166507	6.286472
1970.000000	4.917609	0.165147	6.286472
1971.000000	4.918922	0.146234	6.286472
1972.000000	4.920176	0.140892	6.286472
1973.000000	4.921370	0.157986	6.286472
1974.000000	4.922511	0.163240	6.286472
1975.000000	4.923607	0.142578	6.286472
1976.000000	4.924651	0.163182	6.286472
1977.000000	4.925651	0.137315	6.286472
1978.000000	4.926624	0.152924	6.286472
1979.000000	4.927577	0.146028	6.286472
1980.000000	4.928506	0.151480	6.286472
1981.000000	4.929406	0.154623	6.286472
1982.000000	4.930280	0.151376	6.286472
1983.000000	4.931129	0.134388	6.286472
1984.000000	4.931946	0.125723	6.286472
1985.000000	4.932732	0.134294	6.286472
1986.000000	4.933504	0.151426	6.286472
1987.000000	4.934279	0.142798	6.286472
1988.000000	4.935060	0.147996	6.286472
1989.000000	4.935839	0.137810	6.286472
1990.000000	4.936607	0.139519	6.286472
1991.000000	4.937363	0.146307	6.286472
1992.000000	4.938111	0.149828	6.286472
1993.000000	4.938854	0.144494	6.286472
1994.000000	4.939597	0.134358	6.286472
1995.000000	4.940336	0.123921	6.286472
1996.000000	4.941055	0.134385	6.286472
1997.000000	4.941738	0.139347	6.286472
1998.000000	4.942385	0.130742	6.286472
1999.000000	4.943008	0.125742	6.286472
2000.000000	4.943604	0.129053	6.286472
2001.000000	4.944166	0.127266	6.286472
2002.000000	4.944704	0.120541	6.286472
2003.000000	4.945219	0.125530	6.286472
2004.000000	4.945708	0.115353	6.286472
2005.000000	4.946183	0.127517	6.286472
2006.000000	4.946659	0.135934	6.286472
2007.000000	4.947129	0.125714	6.286472
2008.000000	4.947592	0.132664	6.286472
2009.000000	4.948048	0.139618	6.286472
2010.000000	4.948504	0.125918	6.286472
2011.000000	4.948990	0.130709	6.286472
2012.000000	4.949525	0.139433	6.286472
2013.000000	4.950085	0.127654	6.286472
2014.000000	4.950654	0.136046	6.286472
2015.000000	4.951252	0.139371	6.286472
2016.000000	4.951885	0.144445	6.286472
2017.000000	4.952543	0.144554	6.286472
2018.000000	4.953223	0.146325	6.286472
2019.000000	4.953922	0.137730	6.286472
2020.000000	4.954641	0.139275	6.286472
2021.000000	4.955391	0.141301	6.286472
2022.000000	4.956167	0.130789	6.286472
2023.000000	4.956969	0.139427	6.286472
2024.000000	4.957798	0.142744	6.286472
2025.000000	4.958654	0.142916	6.286472
2026.000000	4.959539	0.144503	6.286472
2027.000000	4.960454	0.134370	6.286472
2028.000000	4.961397	0.146488	6.286472
2029.000000	4.962362	0.153086	6.286472
2030.000000	4.963341	0.156730	6.286472
2031.000000	4.964336	0.139803	6.286472
2032.000000	4.965366	0.144565	6.286472
2033.000000	4.966442	0.148447	6.286472
2034.000000	4.967551	0.144754	6.286472
2035.000000	4.968692	0.146623	6.286472
2036.000000	4.969879	0.157304	6.286472
2037.000000	4.971114	0.162066	6.286472
2038.000000	4.972394	0.148149	6.286472
2039.000000	4.973730	0.143254	6.286472
2040.000000	4.975135	0.155463	6.286472
2041.000000	4.976612	0.164105	6.286472
2042.000000	4.978152	0.153718	6.286472
2043.000000	4.979755	0.165790	6.286472
2044.000000	4.981424	0.147044	6.286472
2045.000000	4.983158	0.176150	6.286472
2046.000000	4.984960	0.159116	6.286472
2047.000000	4.986840	0.145626	6.286472
2048.000000	4.988799	0.165965	6.286472
2049.000000	4.990819	0.176638	6.286472
2050.000000	4.992895	0.178204	6.286472
2051.000000	4.995046	0.174965	6.286472
2052.000000	4.997293	0.192150	6.286472
2053.000000	4.999635	0.173400	6.286472
2054.000000	5.002059	0.191966	6.286472
2055.000000	5.004565	0.178777	6.286472
2056.000000	5.007153	0.183786	6.286472
2057.000000	5.009809	0.187479	6.286472
2058.000000	5.012532	0.185784	6.286472
2059.000000	5.015338	0.194445	6.286472
2060.000000	5.018240	0.199763	6.286472
2061.000000	5.021236	0.193092	6.286472
2062.000000	5.024320	0.205081	6.286472
2063.000000	5.027488	0.203565	6.286472
2064.000000	5.030736	0.205384	6.286472
2065.000000	5.034081	0.207092	6.286472
2066.000000	5.037547	0.205429	6.286472
2067.000000	5.041121	0.200577	6.286472
2068.000000	5.044784	0.202271	6.286472
2069.000000	5.048538	0.216024	6.286472
2070.000000	5.052380	0.231798	6.286472
2071.000000	5.056305	0.231922	6.286472
2072.000000	5.060323	0.233484	6.286472
2073.000000	5.064436	0.223417	6.286472
2074.000000	5.068641	0.235748	6.286472
2075.000000	5.072936	0.240750	6.286472
2076.000000	5.077315	0.221967	6.286472
2077.000000	5.081757	0.237752	6.286472
2078.000000	5.086248	0.248044	6.286472
2079.000000	5.090796	0.268784	6.286472
2080.000000	5.095404	0.265571	6.286472
2081.000000	5.100064	0.270732	6.286472
2082.000000	5.104755	0.255534	6.286472
2083.000000	5.109459	0.257448	6.286472
2084.000000	5.114178	0.272912	6.286472
2085.000000	5.118927	0.269709	6.286472
2086.000000	5.123715	0.278275	6.286472
2087.000000	5.128562	0.280038	6.286472
2088.000000	5.133468	0.289015	6.286472
2089.000000	5.138416	0.283810	6.286472
2090.000000	5.143392	0.299338	6.286472
2091.000000	5.148401	0.285709	6.286472
2092.000000	5.153422	0.268607	6.286472
2093.000000	5.158429	0.320307	6.286472
2094.000000	5.163433	0.292833	6.286472
2095.000000	5.168447	0.299997	6.286472
2096.000000	5.173466	0.293375	6.286472
2097.000000	5.178492	0.291547	6.286472
2098.000000	5.183525	0.307075	6.286472
2099.000000	5.188566	0.314249	6.286472
2100.000000	5.193623	0.298771	6.286472
2101.000000	5.198695	0.319503	6.286472
2102.000000	5.203758	0.319437	6.286472
2103.000000	5.208806	0.321527	6.286472
2104.000000	5.213843	0.319673	6.286472
2105.000000	5.218862	0.343776	6.286472
2106.000000	5.223847	0.344186	6.286472
2107.000000	5.228789	0.345886	6.286472
2108.000000	5.233678	0.321800	6.286472
2109.000000	5.238501	0.345958	6.286472
2110.000000	5.243277	0.352935	6.286472
2111.000000	5.248014	0.349660	6.286472
2112.000000	5.252703	0.337598	6.286472
2113.000000	5.257350	0.348297	6.286472
2114.000000	5.261959	0.351635	6.286472
2115.000000	5.266518	0.360261	6.286472
2116.000000	5.271028	0.360520	6.286472
2117.000000	5.275498	0.357104	6.286472
2118.000000	5.279927	0.372671	6.286472
2119.000000	5.284302	0.370864	6.286472
2120.000000	5.288620	0.354045	6.286472
2121.000000	5.292884	0.382218	6.286472
2122.000000	5.297099	0.379892	6.286472
2123.000000	5.301274	0.366321	6.286472
2124.000000	5.305412	0.378239	6.286472
2125.000000	5.309516	0.386841	6.286472
2126.000000	5.313585	0.374902	6.286472
2127.000000	5.317616	0.378562	6.286472
2128.000000	5.321609	0.380509	6.286472
2129.000000	5.325566	0.418142	6.286472
2130.000000	5.329485	0.392696	6.286472
2131.000000	5.333364	0.380654	6.286472
2132.000000	5.337211	0.395946	6.286472
2133.000000	5.341037	0.413350	6.286472
2134.000000	5.344846	0.389347	6.286472
2135.000000	5.348632	0.404930	6.286472
2136.000000	5.352389	0.393020	6.286472
2137.000000	5.356106	0.393166	6.286472
2138.000000	5.359767	0.412112	6.286472
2139.000000	5.363370	0.401812	6.286472
2140.000000	5.366939	0.415344	6.286472
2141.000000	5.370492	0.410566	6.286472
2142.000000	5.374018	0.426127	6.286472
2143.000000	5.377498	0.420939	6.286472
2144.000000	5.380929	0.417687	6.286472
2145.000000	5.384320	0.407402	6.286472
2146.000000	5.387679	0.436630	6.286472
2147.000000	5.391009	0.416090	6.286472
2148.000000	5.394304	0.429885	6.286472
2149.000000	5.397573	0.429864	6.286472
2150.000000	5.400811	0.421561	6.286472
2151.000000	5.404014	0.426815	6.286472
2152.000000	5.407197	0.423403	6.286472
2153.000000	5.410380	0.436919	6.286472
2154.000000	5.413564	0.442280	6.286472
2155.000000	5.416742	0.442433	6.286472
2156.000000	5.419912	0.446008	6.286472
2157.000000	5.423082	0.459588	6.286472
2158.000000	5.426262	0.453066	6.286472
2159.000000	5.429443	0.454517	6.286472
2160.000000	5.432629	0.454781	6.286472
2161.000000	5.435831	0.459875	6.286472
2162.000000	5.439033	0.453013	6.286472
2163.000000	5.442224	0.480607	6.286472
2164.000000	5.445414	0.465395	6.286472
2165.000000	5.448611	0.470450	6.286472
2166.000000	5.451811	0.480788	6.286472
2167.000000	5.455012	0.482602	6.286472
2168.000000	5.458225	0.462176	6.286472
2169.000000	5.461461	0.479340	6.286472
2170.000000	5.464723	0.493087	6.286472
2171.000000	5.468011	0.489724	6.286472
2172.000000	5.471318	0.488078	6.286472
2173.000000	5.474638	0.486108	6.286472
2174.000000	5.477946	0.495060	6.286472
2175.000000	5.481221	0.489890	6.286472
2176.000000	5.484474	0.495131	6.286472
2177.000000	5.487723	0.507183	6.286472
2178.000000	5.490970	0.507424	6.286472
2179.000000	5.494213	0.502293	6.286472
2180.000000	5.497454	0.519395	6.286472
2181.000000	5.500697	0.514593	6.286472
2182.000000	5.503937	0.514306	6.286472
2183.000000	5.507163	0.499181	6.286472
2184.000000	5.510383	0.519670	6.286472
2185.000000	5.513604	0.523220	6.286472
2186.000000	5.516811	0.524770	6.286472
2187.000000	5.519998	0.533504	6.286472
2188.000000	5.523184	0.532041	6.286472
2189.000000	5.526364	0.540561	6.286472
2190.000000	5.529526	0.521684	6.286472
2191.000000	5.532672	0.535588	6.286472
2192.000000	5.535815	0.544195	6.286472
2193.000000	5.538968	0.540941	6.286472
2194.000000	5.542129	0.554760	6.286472
2195.000000	5.545290	0.563351	6.286472
2196.000000	5.548451	0.549592	6.286472
2197.000000	5.551613	0.542869	6.286472
2198.000000	5.554777	0.539367	6.286472
2199.000000	5.557943	0.572136	6.286472
2200.000000	5.561108	0.570523	6.286472
2201.000000	5.564266	0.561820	6.286472
2202.000000	5.567412	0.556676	6.286472
2203.000000	5.570539	0.575750	6.286472
2204.000000	5.573645	0.541584	6.286472
2205.000000	5.576727	0.574221	6.286472
2206.000000	5.579786	0.557002	6.286472
2207.000000	5.582818	0.574419	6.286472
2208.000000	5.585822	0.567510	6.286472
2209.000000	5.588806	0.588188	6.286472
2210.000000	5.591771	0.577833	6.286472
2211.000000	5.594711	0.569493	6.286472
2212.000000	5.597620	0.578103	6.286472
2213.000000	5.600493	0.586626	6.286472
2214.000000	5.603337	0.571279	6.286472
2215.000000	5.606153	0.600405	6.286472
2216.000000	5.608940	0.590056	6.286472
2217.000000	5.611711	0.590218	6.286472
2218.000000	5.614451	0.604165	6.286472
2219.000000	5.617151	0.595532	6.286472
2220.000000	5.619824	0.581520	6.286472
2221.000000	5.622465	0.599045	6.286472
2222.000000	5.625063	0.598823	6.286472
2223.000000	5.627624	0.611174	6.286472
2224.000000	5.630164	0.588752	6.286472
2225.000000	5.632687	0.602585	6.286472
2226.000000	5.635191	0.621609	6.286472
2227.000000	5.637675	0.621457	6.286472
2228.000000	5.640141	0.630112	6.286472
2229.000000	5.642586	0.616478	6.286472
2230.000000	5.645007	0.621634	6.286472
2231.000000	5.647412	0.631971	6.286472
2232.000000	5.649813	0.625160	6.286472
2233.000000	5.652197	0.613303	6.286472
2234.000000	5.654549	0.630137	6.286472
2235.000000	5.656872	0.635546	6.286472
2236.000000	5.659173	0.633746	6.286472
2237.000000	5.661455	0.630568	6.286472
2238.000000	5.663734	0.640807	6.286472
2239.000000	5.666009	0.647776	6.286472
2240.000000	5.668270	0.639402	6.286472
2241.000000	5.670513	0.663321	6.286472
2242.000000	5.672737	0.635962	6.286472
2243.000000	5.674937	0.668632	6.286472
2244.000000	5.677120	0.648153	6.286472
2245.000000	5.679292	0.644718	6.286472
2246.000000	5.681455	0.655100	6.286472
2247.000000	5.683608	0.662069	6.286472
2248.000000	5.685756	0.665464	6.286472
2249.000000	5.687915	0.667144	6.286472
2250.000000	5.690084	0.663867	6.286472
2251.000000	5.692271	0.663668	6.286472
2252.000000	5.694489	0.667435	6.286472
2253.000000	5.696727	0.677669	6.286472
2254.000000	5.698973	0.658895	6.286472
2255.000000	5.701232	0.684653	6.286472
2256.000000	5.703506	0.685141	6.286472
2257.000000	5.705795	0.679708	6.286472
2258.000000	5.708112	0.676422	6.286472
2259.000000	5.710454	0.688580	6.286472
2260.000000	5.712815	0.688691	6.286472
2261.000000	5.715186	0.682094	6.286472
2262.000000	5.717554	0.675097	6.286472
2263.000000	5.719914	0.673357	6.286472
2264.000000	5.722260	0.697561	6.286472
2265.000000	5.724592	0.702572	6.286472
2266.000000	5.726918	0.692430	6.286472
2267.000000	5.729248	0.707880	6.286472
2268.000000	5.731579	0.699710	6.286472
2269.000000	5.733890	0.706707	6.286472
2270.000000	5.736177	0.703224	6.286472
2271.000000	5.738448	0.696349	6.286472
2272.000000	5.740703	0.708445	6.286472
2273.000000	5.742935	0.699878	6.286472
2274.000000	5.745144	0.710241	6.286472
2275.000000	5.747343	0.703365	6.286472
2276.000000	5.749536	0.706921	6.286472
2277.000000	5.751715	0.705360	6.286472
2278.000000	5.753878	0.701889	6.286472
2279.000000	5.756032	0.712324	6.286472
2280.000000	5.758178	0.712382	6.286472
2281.000000	5.760320	0.715903	6.286472
2282.000000	5.762469	0.710810	6.286472
2283.000000	5.764628	0.712520	6.286472
2284.000000	5.766799	0.700592	6.286472
2285.000000	5.768993	0.726382	6.286472
2286.000000	5.771218	0.709556	6.286472
2287.000000	5.773463	0.723183	6.286472
2288.000000	5.775715	0.740409	6.286472
2289.000000	5.777976	0.731938	6.286472
2290.000000	5.780259	0.731809	6.286472
2291.000000	5.782548	0.720052	6.286472
2292.000000	5.784816	0.750718	6.286472
2293.000000	5.787073	0.749105	6.286472
2294.000000	5.789331	0.735712	6.286472
2295.000000	5.791580	0.735632	6.286472
2296.000000	5.793800	0.737295	6.286472
2297.000000	5.795986	0.737132	6.286472
2298.000000	5.798149	0.733819	6.286472
2299.000000	5.800278	0.737416	6.286472
2300.000000	5.802350	0.742564	6.286472
2301.000000	5.804358	0.737386	6.286472
2302.000000	5.806297	0.725643	6.286472
2303.000000	5.808164	0.749683	6.286472
2304.000000	5.809975	0.749599	6.286472
2305.000000	5.811751	0.734298	6.286472
2306.000000	5.813488	0.749695	6.286472
2307.000000	5.815170	0.737880	6.286472
2308.000000	5.816795	0.751512	6.286472
2309.000000	5.818381	0.761821	6.286472
2310.000000	5.819949	0.768938	6.286472
2311.000000	5.821496	0.767085	6.286472
2312.000000	5.823016	0.754999	6.286472
2313.000000	5.824508	0.748285	6.286472
2314.000000	5.825968	0.751919	6.286472
2315.000000	5.827397	0.761981	6.286472
2316.000000	5.828796	0.770569	6.286472
2317.000000	5.830154	0.767226	6.286472
2318.000000	5.831459	0.753385	6.286472
2319.000000	5.832709	0.765619	6.286472
2320.000000	5.833907	0.769118	6.286472
2321.000000	5.835060	0.760499	6.286472
2322.000000	5.836176	0.763631	6.286472
2323.000000	5.837258	0.769054	6.286472
2324.000000	5.838299	0.775660	6.286472
2325.000000	5.839297	0.774034	6.286472
2326.000000	5.840250	0.765757	6.286472
2327.000000	5.841153	0.770647	6.286472
2328.000000	5.842005	0.755378	6.286472
2329.000000	5.842805	0.770733	6.286472
2330.000000	5.843556	0.780948	6.286472
2331.000000	5.844254	0.779219	6.286472
2332.000000	5.844896	0.773886	6.286472
2333.000000	5.845492	0.772319	6.286472
2334.000000	5.846058	0.765304	6.286472
2335.000000	5.846593	0.780908	6.286472
2336.000000	5.847094	0.764186	6.286472
2337.000000	5.847572	0.772279	6.286472
2338.000000	5.848035	0.772341	6.286472
2339.000000	5.848468	0.755126	6.286472
2340.000000	5.848872	0.768896	6.286472
2341.000000	5.849273	0.772221	6.286472
2342.000000	5.849680	0.782613	6.286472
2343.000000	5.850055	0.760430	6.286472
2344.000000	5.850379	0.761941	6.286472
2345.000000	5.850652	0.767265	6.286472
2346.000000	5.850875	0.755117	6.286472
2347.000000	5.851048	0.758078	6.286472
2348.000000	5.851174	0.761890	6.286472
2349.000000	5.851262	0.765305	6.286472
2350.000000	5.851305	0.755100	6.286472
2351.000000	5.851292	0.761900	6.286472
2352.000000	5.851234	0.760045	6.286472
2353.000000	5.851141	0.760212	6.286472
2354.000000	5.851005	0.756831	6.286472
2355.000000	5.850817	0.751497	6.286472
2356.000000	5.850586	0.761737	6.286472
2357.000000	5.850313	0.742814	6.286472
2358.000000	5.849972	0.754617	6.286472
2359.000000	5.849547	0.759966	6.286472
2360.000000	5.849046	0.754642	6.286472
2361.000000	5.848488	0.742440	6.286472
2362.000000	5.847875	0.749521	6.286472
2363.000000	5.847195	0.730817	6.286472
2364.000000	5.846456	0.752670	6.286472
2365.000000	5.845658	0.734034	6.286472
2366.000000	5.844788	0.740645	6.286472
2367.000000	5.843857	0.735595	6.286472
2368.000000	5.842887	0.750979	6.286472
2369.000000	5.841888	0.745748	6.286472
2370.000000	5.840861	0.742364	6.286472
2371.000000	5.839797	0.749147	6.286472
2372.000000	5.838702	0.732038	6.286472
2373.000000	5.837587	0.728547	6.286472
2374.000000	5.836451	0.748993	6.286472
2375.000000	5.835292	0.747254	6.286472
2376.000000	5.834112	0.735205	6.286472
2377.000000	5.832888	0.724991	6.286472
2378.000000	5.831616	0.746885	6.286472
2379.000000	5.830330	0.728280	6.286472
2380.000000	5.829053	0.734882	6.286472
2381.000000	5.827783	0.722825	6.286472
2382.000000	5.826514	0.729759	6.286472
2383.000000	5.825233	0.738358	6.286472
2384.000000	5.823942	0.731214	6.286472
2385.000000	5.822648	0.726239	6.286472
2386.000000	5.821334	0.724345	6.286472
2387.000000	5.819993	0.743303	6.286472
2388.000000	5.818643	0.725724	6.286472
2389.000000	5.817284	0.720667	6.286472
2390.000000	5.815909	0.732541	6.286472
2391.000000	5.814527	0.724018	6.286472
2392.000000	5.813142	0.715344	6.286472
2393.000000	5.811729	0.739342	6.286472
2394.000000	5.810288	0.720315	6.286472
2395.000000	5.808828	0.727343	6.286472
2396.000000	5.807346	0.706511	6.286472
2397.000000	5.805845	0.720379	6.286472
2398.000000	5.804324	0.706177	6.286472
2399.000000	5.802770	0.721883	6.286472
2400.000000	5.801177	0.719931	6.286472
2401.000000	5.799553	0.718214	6.286472
2402.000000	5.797909	0.714434	6.286472
2403.000000	5.796244	0.716508	6.286472
2404.000000	5.794557	0.704284	6.286472
2405.000000	5.792855	0.719841	6.286472
2406.000000	5.791139	0.707485	6.286472
2407.000000	5.789403	0.723104	6.286472
2408.000000	5.787649	0.703983	6.286472
2409.000000	5.785872	0.728080	6.286472
2410.000000	5.784068	0.717428	6.286472
2411.000000	5.782228	0.702259	6.286472
2412.000000	5.780356	0.710422	6.286472
2413.000000	5.778454	0.715675	6.286472
2414.000000	5.776518	0.715334	6.286472
2415.000000	5.774557	0.700210	6.286472
2416.000000	5.772576	0.687817	6.286472
2417.000000	5.770580	0.694910	6.286472
2418.000000	5.768577	0.699739	6.286472
2419.000000	5.766563	0.699743	6.286472
2420.000000	5.764525	0.684202	6.286472
2421.000000	5.762473	0.704555	6.286472
2422.000000	5.760414	0.694466	6.286472
2423.000000	5.758335	0.687465	6.286472
2424.000000	5.756233	0.688974	6.286472
2425.000000	5.754124	0.694185	6.286472
2426.000000	5.752002	0.700971	6.286472
2427.000000	5.749849	0.694051	6.286472
2428.000000	5.747666	0.690490	6.286472
2429.000000	5.745469	0.705817	6.286472
2430.000000	5.743267	0.680264	6.286472
2431.000000	5.741050	0.686816	6.286472
2432.000000	5.738811	0.691850	6.286472
2433.000000	5.736557	0.669593	6.286472
2434.000000	5.734288	0.674364	6.286472
2435.000000	5.732005	0.691694	6.286472
2436.000000	5.729705	0.670933	6.286472
2437.000000	5.727387	0.681112	6.286472
2438.000000	5.725056	0.669068	6.286472
2439.000000	5.722715	0.675862	6.286472
2440.000000	5.720360	0.677658	6.286472
2441.000000	5.717995	0.675756	6.286472
2442.000000	5.715628	0.662096	6.286472
2443.000000	5.713272	0.673808	6.286472
2444.000000	5.710942	0.663613	6.286472
2445.000000	5.708630	0.673713	6.286472
2446.000000	5.706331	0.659890	6.286472
2447.000000	5.704054	0.671780	6.286472
2448.000000	5.701793	0.670235	6.286472
2449.000000	5.699539	0.663132	6.286472
2450.000000	5.697297	0.654527	6.286472
2451.000000	5.695072	0.668452	6.286472
2452.000000	5.692873	0.657627	6.286472
2453.000000	5.690709	0.662948	6.286472
2454.000000	5.688588	0.666186	6.286472
2455.000000	5.686498	0.669788	6.286472
2456.000000	5.684433	0.671083	6.286472
2457.000000	5.682405	0.660759	6.286472
2458.000000	5.680425	0.667527	6.286472
2459.000000	5.678482	0.655375	6.286472
2460.000000	5.676573	0.674423	6.286472
2461.000000	5.674714	0.679648	6.286472
2462.000000	5.672913	0.657124	6.286472
2463.000000	5.671170	0.669148	6.286472
2464.000000	5.669485	0.668875	6.286472
2465.000000	5.667853	0.670675	6.286472
2466.000000	5.666266	0.667280	6.286472
2467.000000	5.664722	0.660338	6.286472
2468.000000	5.663222	0.668921	6.286472
2469.000000	5.661774	0.684186	6.286472
2470.000000	5.660388	0.653536	6.286472
2471.000000	5.659054	0.665385	6.286472
2472.000000	5.657775	0.672067	6.286472
2473.000000	5.656557	0.663459	6.286472
2474.000000	5.655380	0.685854	6.286472
2475.000000	5.654238	0.688993	6.286472
2476.000000	5.653134	0.670396	6.286472
2477.000000	5.652077	0.673560	6.286472
2478.000000	5.651068	0.673875	6.286472
2479.000000	5.650103	0.675525	6.286472
2480.000000	5.649181	0.672196	6.286472
2481.000000	5.648307	0.675340	6.286472
2482.000000	5.647487	0.682118	6.286472
2483.000000	5.646723	0.670312	6.286472
2484.000000	5.646007	0.664871	6.286472
2485.000000	5.645335	0.661513	6.286472
2486.000000	5.644690	0.677086	6.286472
2487.000000	5.644060	0.673603	6.286472
2488.000000	5.643467	0.695829	6.286472
2489.000000	5.642928	0.680097	6.286472
2490.000000	5.642442	0.664825	6.286472
2491.000000	5.642002	0.685468	6.286472
2492.000000	5.641623	0.678697	6.286472
2493.000000	5.641316	0.688827	6.286472
2494.000000	5.641064	0.692009	6.286472
2495.000000	5.640869	0.687084	6.286472
2496.000000	5.640735	0.678529	6.286472
2497.000000	5.640626	0.692235	6.286472
2498.000000	5.640511	0.695693	6.286472
2499.000000	5.640412	0.693938	6.286472
2500.000000	5.640361	0.702702	6.286472
2501.000000	5.640364	0.699226	6.286472
2502.000000	5.640418	0.690484	6.286472
2503.000000	5.640525	0.689073	6.286472
2504.000000	5.640698	0.692089	6.286472
2505.000000	5.640949	0.699159	6.286472
2506.000000	5.641276	0.700898	6.286472
2507.000000	5.641674	0.704469	6.286472
2508.000000	5.642135	0.699274	6.286472
2509.000000	5.642636	0.711233	6.286472
2510.000000	5.643170	0.697428	6.286472
2511.000000	5.643751	0.692678	6.286472
2512.000000	5.644377	0.690743	6.286472
2513.000000	5.645043	0.688891	6.286472
2514.000000	5.645758	0.691045	6.286472
2515.000000	5.646529	0.709717	6.286472
2516.000000	5.647343	0.699497	6.286472
2517.000000	5.648186	0.713313	6.286472
2518.000000	5.649060	0.709948	6.286472
2519.000000	5.649970	0.711640	6.286472
2520.000000	5.650913	0.694686	6.286472
2521.000000	5.651869	0.718583	6.286472
2522.000000	5.652825	0.713447	6.286472
2523.000000	5.653801	0.718680	6.286472
2524.000000	5.654811	0.708277	6.286472
2525.000000	5.655857	0.711792	6.286472
2526.000000	5.656932	0.729245	6.286472
2527.000000	5.658018	0.739384	6.286472
2528.000000	5.659112	0.718759	6.286472
2529.000000	5.660215	0.722298	6.286472
2530.000000	5.661325	0.732508	6.286472
2531.000000	5.662446	0.708344	6.286472
2532.000000	5.663569	0.727489	6.286472
2533.000000	5.664687	0.722206	6.286472
2534.000000	5.665805	0.730733	6.286472
2535.000000	5.666921	0.729489	6.286472
2536.000000	5.668029	0.729482	6.286472
2537.000000	5.669126	0.743303	6.286472
2538.000000	5.670222	0.727673	6.286472
2539.000000	5.671333	0.741317	6.286472
2540.000000	5.672443	0.729412	6.286472
2541.000000	5.673533	0.741618	6.286472
2542.000000	5.674592	0.731212	6.286472
2543.000000	5.675631	0.724464	6.286472
2544.000000	5.676670	0.741478	6.286472
2545.000000	5.677709	0.734865	6.286472
2546.000000	5.678726	0.731352	6.286472
2547.000000	5.679702	0.755614	6.286472
2548.000000	5.680656	0.745245	6.286472
2549.000000	5.681597	0.748766	6.286472
2550.000000	5.682528	0.736679	6.286472
2551.000000	5.683461	0.734947	6.286472
2552.000000	5.684399	0.736620	6.286472
2553.000000	5.685337	0.757239	6.286472
2554.000000	5.686275	0.734954	6.286472
2555.000000	5.687211	0.752352	6.286472
2556.000000	5.688140	0.736801	6.286472
2557.000000	5.689072	0.748948	6.286472
2558.000000	5.690021	0.738405	6.286472
2559.000000	5.690987	0.760953	6.286472
2560.000000	5.691953	0.733479	6.286472
2561.000000	5.692893	0.730102	6.286472
2562.000000	5.693788	0.737096	6.286472
2563.000000	5.694640	0.739030	6.286472
2564.000000	5.695466	0.730145	6.286472
2565.000000	5.696274	0.754298	6.286472
2566.000000	5.697056	0.728751	6.286472
2567.000000	5.697802	0.738832	6.286472
2568.000000	5.698507	0.742412	6.286472
2569.000000	5.699171	0.725356	6.286472
2570.000000	5.699796	0.747700	6.286472
2571.000000	5.700383	0.752680	6.286472
2572.000000	5.700940	0.752660	6.286472
2573.000000	5.701465	0.742520	6.286472
2574.000000	5.701952	0.742357	6.286472
2575.000000	5.702390	0.749421	6.286472
2576.000000	5.702782	0.733772	6.286472
2577.000000	5.703138	0.752870	6.286472
2578.000000	5.703459	0.749379	6.286472
2579.000000	5.703736	0.745816	6.286472
2580.000000	5.703962	0.745931	6.286472
2581.000000	5.704140	0.739007	6.286472
2582.000000	5.704277	0.754434	6.286472
2583.000000	5.704367	0.735661	6.286472
2584.000000	5.704406	0.730566	6.286472
2585.000000	5.704400	0.728605	6.286472
2586.000000	5.704353	0.735466	6.286472
2587.000000	5.704271	0.727088	6.286472
2588.000000	5.704150	0.732333	6.286472
2589.000000	5.703985	0.720409	6.286472
2590.000000	5.703777	0.744283	6.286472
2591.000000	5.703529	0.725281	6.286472
2592.000000	5.703250	0.739048	6.286472
2593.000000	5.702954	0.716681	6.286472
2594.000000	5.702647	0.722242	6.286472
2595.000000	5.702304	0.732504	6.286472
2596.000000	5.701917	0.735769	6.286472
2597.000000	5.701487	0.737307	6.286472
2598.000000	5.701018	0.734098	6.286472
2599.000000	5.700505	0.720487	6.286472
2600.000000	5.699943	0.711758	6.286472
2601.000000	5.699338	0.718848	6.286472
2602.000000	5.698703	0.708385	6.286472
2603.000000	5.698045	0.716914	6.286472
2604.000000	5.697363	0.708288	6.286472
2605.000000	5.696653	0.725816	6.286472
2606.000000	5.695909	0.718795	6.286472
2607.000000	5.695149	0.723815	6.286472
2608.000000	5.694399	0.716937	6.286472
2609.000000	5.693637	0.699755	6.286472
2610.000000	5.692845	0.704926	6.286472
2611.000000	5.692009	0.706679	6.286472
2612.000000	5.691111	0.692811	6.286472
2613.000000	5.690172	0.694912	6.286472
2614.000000	5.689202	0.694685	6.286472
2615.000000	5.688194	0.692949	6.286472
2616.000000	5.687172	0.696210	6.286472
2617.000000	5.686155	0.684598	6.286472
2618.000000	5.685117	0.698065	6.286472
2619.000000	5.684040	0.679266	6.286472
2620.000000	5.682931	0.682397	6.286472
2621.000000	5.681801	0.675787	6.286472
2622.000000	5.680645	0.684211	6.286472
2623.000000	5.679452	0.684204	6.286472
2624.000000	5.678216	0.666969	6.286472
2625.000000	5.676925	0.701547	6.286472
2626.000000	5.675575	0.675465	6.286472
2627.000000	5.674171	0.658244	6.286472
2628.000000	5.672713	0.667132	6.286472
2629.000000	5.671192	0.665451	6.286472
2630.000000	5.669598	0.668892	6.286472
2631.000000	5.667935	0.658311	6.286472
2632.000000	5.666213	0.646178	6.286472
2633.000000	5.664426	0.646274	6.286472
2634.000000	5.662573	0.653172	6.286472
2635.000000	5.660665	0.649750	6.286472
2636.000000	5.658695	0.639225	6.286472
2637.000000	5.656663	0.647793	6.286472
2638.000000	5.654573	0.628999	6.286472
2639.000000	5.652411	0.627231	6.286472
2640.000000	5.650168	0.618493	6.286472
2641.000000	5.647852	0.628795	6.286472
2642.000000	5.645464	0.613253	6.286472
2643.000000	5.643001	0.599443	6.286472
2644.000000	5.640463	0.625408	6.286472
2645.000000	5.637845	0.614933	6.286472
2646.000000	5.635146	0.608044	6.286472
2647.000000	5.632367	0.602534	6.286472
2648.000000	5.629508	0.595542	6.286472
2649.000000	5.626580	0.600578	6.286472
2650.000000	5.623585	0.588904	6.286472
2651.000000	5.620517	0.593654	6.286472
2652.000000	5.617366	0.569564	6.286472
2653.000000	5.614124	0.571177	6.286472
2654.000000	5.610791	0.569456	6.286472
2655.000000	5.607361	0.553624	6.286472
2656.000000	5.603832	0.546772	6.286472
2657.000000	5.600206	0.537834	6.286472
2658.000000	5.596467	0.529267	6.286472
2659.000000	5.592604	0.515503	6.286472
2660.000000	5.588624	0.513765	6.286472
2661.000000	5.584520	0.510078	6.286472
2662.000000	5.580288	0.506653	6.286472
2663.000000	5.575977	0.521874	6.286472
2664.000000	5.571613	0.495975	6.286472
2665.000000	5.567189	0.484014	6.286472
2666.000000	5.562715	0.504536	6.286472
2667.000000	5.558208	0.494247	6.286472
2668.000000	5.553678	0.482112	6.286472
2669.000000	5.549140	0.473646	6.286472
2670.000000	5.544610	0.469952	6.286472
2671.000000	5.540112	0.478783	6.286472
2672.000000	5.535650	0.478579	6.286472
2673.000000	5.531214	0.470074	6.286472
2674.000000	5.526826	0.480019	6.286472
2675.000000	5.522531	0.476456	6.286472
2676.000000	5.518339	0.462799	6.286472
2677.000000	5.514229	0.464336	6.286472
2678.000000	5.510184	0.454072	6.286472
2679.000000	5.506188	0.438586	6.286472
2680.000000	5.502229	0.457096	6.286472
2681.000000	5.498315	0.451942	6.286472
2682.000000	5.494455	0.438030	6.286472
2683.000000	5.490643	0.429639	6.286472
2684.000000	5.486869	0.432737	6.286472
2685.000000	5.483134	0.422528	6.286472
2686.000000	5.479438	0.418789	6.286472
2687.000000	5.475781	0.420537	6.286472
2688.000000	5.472166	0.406834	6.286472
2689.000000	5.468591	0.398391	6.286472
2690.000000	5.465057	0.403418	6.286472
2691.000000	5.461573	0.392987	6.286472
2692.000000	5.458143	0.396336	6.286472
2693.000000	5.454769	0.392991	6.286472
2694.000000	5.451459	0.387774	6.286472
2695.000000	5.448202	0.384215	6.286472
2696.000000	5.444972	0.378913	6.286472
2697.000000	5.441775	0.382337	6.286472
2698.000000	5.438631	0.363405	6.286472
2699.000000	5.435533	0.354862	6.286472
2700.000000	5.432467	0.361603	6.286472
2701.000000	5.429438	0.359864	6.286472
2702.000000	5.426453	0.351080	6.286472
2703.000000	5.423499	0.327201	6.286472
2704.000000	5.420561	0.335440	6.286472
2705.000000	5.417650	0.345815	6.286472
2706.000000	5.414768	0.338587	6.286472
2707.000000	5.411918	0.332038	6.286472
2708.000000	5.409108	0.335186	6.286472
2709.000000	5.406356	0.352211	6.286472
2710.000000	5.403681	0.333330	6.286472
2711.000000	5.401075	0.330293	6.286472
2712.000000	5.398518	0.322877	6.286472
2713.000000	5.396011	0.335053	6.286472
2714.000000	5.393566	0.314410	6.286472
2715.000000	5.391166	0.307371	6.286472
2716.000000	5.388788	0.316015	6.286472
2717.000000	5.386424	0.298769	6.286472
2718.000000	5.384075	0.312369	6.286472
2719.000000	5.381752	0.293520	6.286472
2720.000000	5.379455	0.300137	6.286472
2721.000000	5.377179	0.286654	6.286472
2722.000000	5.374912	0.281090	6.286472
2723.000000	5.372640	0.281172	6.286472
2724.000000	5.370350	0.277620	6.286472
2725.000000	5.368041	0.265573	6.286472
2726.000000	5.365714	0.263850	6.286472
2727.000000	5.363375	0.275933	6.286472
2728.000000	5.361033	0.275756	6.286472
2729.000000	5.358688	0.257030	6.286472
2730.000000	5.356335	0.244672	6.286472
2731.000000	5.353976	0.255077	6.286472
2732.000000	5.351597	0.254958	6.286472
2733.000000	5.349193	0.234440	6.286472
2734.000000	5.346772	0.263325	6.286472
2735.000000	5.344349	0.236034	6.286472
2736.000000	5.341925	0.230302	6.286472
2737.000000	5.339502	0.230670	6.286472
2738.000000	5.337083	0.223604	6.286472
2739.000000	5.334665	0.228906	6.286472
2740.000000	5.332253	0.226809	6.286472
2741.000000	5.329848	0.218660	6.286472
2742.000000	5.327441	0.209651	6.286472
2743.000000	5.325025	0.206488	6.286472
2744.000000	5.322607	0.203037	6.286472
2745.000000	5.320208	0.202777	6.286472
2746.000000	5.317846	0.204407	6.286472
2747.000000	5.315514	0.200939	6.286472
2748.000000	5.313208	0.202963	6.286472
2749.000000	5.310954	0.206156	6.286472
2750.000000	5.308781	0.185691	6.286472
2751.000000	5.306699	0.171820	6.286472
2752.000000	5.304713	0.209576	6.286472
2753.000000	5.302818	0.183842	6.286472
2754.000000	5.301004	0.190732	6.286472
2755.000000	5.299277	0.175177	6.286472
2756.000000	5.297650	0.189203	6.286472
2757.000000	5.296127	0.173615	6.286472
2758.000000	5.294712	0.168313	6.286472
2759.000000	5.293412	0.182445	6.286472
2760.000000	5.292234	0.184352	6.286472
2761.000000	5.291184	0.165239	6.286472
2762.000000	5.290260	0.172163	6.286472
2763.000000	5.289459	0.173988	6.286472
2764.000000	5.288783	0.174046	6.286472
2765.000000	5.288229	0.191224	6.286472
2766.000000	5.287795	0.170766	6.286472
2767.000000	5.287489	0.167244	6.286472
2768.000000	5.287302	0.182628	6.286472
2769.000000	5.287220	0.177718	6.286472
2770.000000	5.287246	0.179592	6.286472
2771.000000	5.287383	0.168956	6.286472
2772.000000	5.287621	0.191650	6.286472
2773.000000	5.287969	0.176033	6.286472
2774.000000	5.288442	0.169304	6.286472
2775.000000	5.289025	0.164373	6.286472
2776.000000	5.289689	0.171183	6.286472
2777.000000	5.290423	0.181791	6.286472
2778.000000	5.291216	0.164805	6.286472
2779.000000	5.292063	0.166541	6.286472
2780.000000	5.292965	0.152697	6.286472
2781.000000	5.293913	0.156114	6.286472
2782.000000	5.294899	0.181933	6.286472
2783.000000	5.295917	0.157811	6.286472
2784.000000	5.296959	0.173485	6.286472
2785.000000	5.298029	0.171762	6.286472
2786.000000	5.299123	0.159829	6.286472
2787.000000	5.300222	0.139277	6.286472
2788.000000	5.301315	0.173690	6.286472
2789.000000	5.302406	0.144606	6.286472
2790.000000	5.303485	0.144538	6.286472
2791.000000	5.304559	0.161666	6.286472
2792.000000	5.305634	0.165348	6.286472
2793.000000	5.306699	0.149816	6.286472
2794.000000	5.307755	0.149951	6.286472
2795.000000	5.308812	0.160121	6.286472
2796.000000	5.309878	0.156732	6.286472
2797.000000	5.310946	0.156953	6.286472
2798.000000	5.312008	0.162216	6.286472
2799.000000	5.313058	0.150094	6.286472
2800.000000	5.314104	0.146815	6.286472
2801.000000	5.315139	0.146759	6.286472
2802.000000	5.316159	0.139896	6.286472
2803.000000	5.317168	0.141533	6.286472
2804.000000	5.318154	0.133002	6.286472
2805.000000	5.319102	0.146772	6.286472
2806.000000	5.320015	0.134745	6.286472
2807.000000	5.320896	0.140083	6.286472
2808.000000	5.321739	0.150206	6.286472
2809.000000	5.322561	0.145095	6.286472
2810.000000	5.323380	0.146953	6.286472
2811.000000	5.324187	0.135085	6.286472
2812.000000	5.324969	0.140294	6.286472
2813.000000	5.325718	0.145255	6.286472
2814.000000	5.326436	0.140249	6.286472
2815.000000	5.327121	0.141845	6.286472
2816.000000	5.327771	0.152159	6.286472
2817.000000	5.328389	0.133181	6.286472
2818.000000	5.328976	0.122934	6.286472
2819.000000	5.329523	0.152181	6.286472
2820.000000	5.330032	0.122924	6.286472
2821.000000	5.330523	0.139997	6.286472
2822.000000	5.331008	0.145212	6.286472
2823.000000	5.331477	0.126611	6.286472
2824.000000	5.331925	0.135152	6.286472
2825.000000	5.332356	0.138429	6.286472
2826.000000	5.332776	0.114541	6.286472
2827.000000	5.333194	0.131646	6.286472
2828.000000	5.333619	0.123052	6.286472
2829.000000	5.334056	0.138469	6.286472
2830.000000	5.334507	0.135100	6.286472
2831.000000	5.334971	0.143741	6.286472
2832.000000	5.335436	0.138845	6.286472
2833.000000	5.335907	0.140279	6.286472
2834.000000	5.336404	0.133707	6.286472
2835.000000	5.336934	0.133444	6.286472
2836.000000	5.337487	0.145451	6.286472
2837.000000	5.338061	0.135115	6.286472
2838.000000	5.338667	0.116524	6.286472
2839.000000	5.339313	0.130246	6.286472
2840.000000	5.339995	0.116584	6.286472
2841.000000	5.340704	0.138980	6.286472
2842.000000	5.341434	0.120219	6.286472
2843.000000	5.342185	0.132017	6.286472
2844.000000	5.342959	0.128667	6.286472
2845.000000	5.343755	0.143924	6.286472
2846.000000	5.344567	0.125252	6.286472
2847.000000	5.345382	0.123585	6.286472
2848.000000	5.346197	0.128797	6.286472
2849.000000	5.347024	0.121714	6.286472
2850.000000	5.347861	0.137308	6.286472
2851.000000	5.348700	0.121854	6.286472
2852.000000	5.349544	0.125605	6.286472
2853.000000	5.350396	0.130417	6.286472
2854.000000	5.351250	0.123855	6.286472
2855.000000	5.352103	0.133915	6.286472
2856.000000	5.352971	0.142466	6.286472
2857.000000	5.353860	0.133936	6.286472
2858.000000	5.354761	0.132388	6.286472
2859.000000	5.355663	0.128800	6.286472
2860.000000	5.356554	0.122112	6.286472
2861.000000	5.357427	0.122294	6.286472
2862.000000	5.358286	0.139302	6.286472
2863.000000	5.359139	0.125588	6.286472
2864.000000	5.359984	0.129123	6.286472
2865.000000	5.360816	0.132333	6.286472
2866.000000	5.361628	0.115409	6.286472
2867.000000	5.362419	0.123995	6.286472
2868.000000	5.363183	0.125658	6.286472
2869.000000	5.363928	0.108178	6.286472
2870.000000	5.364675	0.139503	6.286472
2871.000000	5.365415	0.132537	6.286472
2872.000000	5.366132	0.125717	6.286472
2873.000000	5.366828	0.122255	6.286472
2874.000000	5.367504	0.129222	6.286472
2875.000000	5.368146	0.127347	6.286472
2876.000000	5.368754	0.120382	6.286472
2877.000000	5.369329	0.115540	6.286472
2878.000000	5.369872	0.124012	6.286472
2879.000000	5.370400	0.127595	6.286472
2880.000000	5.370924	0.124243	6.286472
2881.000000	5.371437	0.107171	6.286472
2882.000000	5.371930	0.115615	6.286472
2883.000000	5.372421	0.117306	6.286472
2884.000000	5.372923	0.108703	6.286472
2885.000000	5.373414	0.122446	6.286472
2886.000000	5.373886	0.132688	6.286472
2887.000000	5.374337	0.113884	6.286472
2888.000000	5.374761	0.107051	6.286472
2889.000000	5.375152	0.103585	6.286472
2890.000000	5.375501	0.098313	6.286472
2891.000000	5.375807	0.108593	6.286472
2892.000000	5.376087	0.105303	6.286472
2893.000000	5.376351	0.093246	6.286472
2894.000000	5.376604	0.093053	6.286472
2895.000000	5.376838	0.096737	6.286472
2896.000000	5.377042	0.112048	6.286472
2897.000000	5.377213	0.107105	6.286472
2898.000000	5.377354	0.084551	6.286472
2899.000000	5.377472	0.096711	6.286472
2900.000000	5.377574	0.082769	6.286472
2901.000000	5.377646	0.100097	6.286472
2902.000000	5.377682	0.113777	6.286472
2903.000000	5.377681	0.087861	6.286472
2904.000000	5.377639	0.118544	6.286472
2905.000000	5.377567	0.093003	6.286472
2906.000000	5.377471	0.104774	6.286472
2907.000000	5.377351	0.111694	6.286472
2908.000000	5.377199	0.077469	6.286472
2909.000000	5.377004	0.079505	6.286472
2910.000000	5.376765	0.089464	6.286472
2911.000000	5.376490	0.097955	6.286472
2912.000000	5.376184	0.092769	6.286472
2913.000000	5.375824	0.085945	6.286472
2914.000000	5.375410	0.101125	6.286472
2915.000000	5.374971	0.099441	6.286472
2916.000000	5.374506	0.072227	6.286472
2917.000000	5.374003	0.099647	6.286472
2918.000000	5.373469	0.070278	6.286472
2919.000000	5.372909	0.068425	6.286472
2920.000000	5.372319	0.065150	6.286472
2921.000000	5.371701	0.076796	6.286472
2922.000000	5.371068	0.085954	6.286472
2923.000000	5.370411	0.073667	6.286472
2924.000000	5.369718	0.065137	6.286472
2925.000000	5.368996	0.071823	6.286472
2926.000000	5.368244	0.061592	6.286472
2927.000000	5.367465	0.064862	6.286472
2928.000000	5.366673	0.061670	6.286472
2929.000000	5.365872	0.068281	6.286472
2930.000000	5.365059	0.051332	6.286472
2931.000000	5.364221	0.069897	6.286472
2932.000000	5.363352	0.061471	6.286472
2933.000000	5.362468	0.056127	6.286472
2934.000000	5.361584	0.058050	6.286472
2935.000000	5.360688	0.049417	6.286472
2936.000000	5.359773	0.054599	6.286472
2937.000000	5.358843	0.051007	6.286472
2938.000000	5.357918	0.063034	6.286472
2939.000000	5.357018	0.047732	6.286472
2940.000000	5.356137	0.054482	6.286472
2941.000000	5.355273	0.035206	6.286472
2942.000000	5.354417	0.037212	6.286472
2943.000000	5.353543	0.054380	6.286472
2944.000000	5.352647	0.033700	6.286472
2945.000000	5.351745	0.035295	6.286472
2946.000000	5.350845	0.023317	6.286472
2947.000000	5.349944	0.042254	6.286472
2948.000000	5.349051	0.036977	6.286472
2949.000000	5.348162	0.037143	6.286472
2950.000000	5.347263	0.014561	6.286472
2951.000000	5.346363	0.045629	6.286472
2952.000000	5.345467	0.028305	6.286472
2953.000000	5.344557	0.026947	6.286472
2954.000000	5.343618	0.016054	6.286472
2955.000000	5.342644	0.018112	6.286472
2956.000000	5.341636	0.019645	6.286472
2957.000000	5.340601	0.016404	6.286472
2958.000000	5.339559	0.014280	6.286472
2959.000000	5.338510	0.000755	6.286472
2960.000000	5.337445	0.000593	6.286472
2961.000000	5.336369	0.016273	6.286472
2962.000000	5.335285	-0.001283	6.286472
2963.000000	5.334212	0.004008	6.286472
2964.000000	5.333167	0.003978	6.286472
2965.000000	5.332138	0.024578	6.286472
2966.000000	5.331105	-0.002944	6.286472
2967.000000	5.330063	-0.004675	6.286472
2968.000000	5.329017	0.005668	6.286472
2969.000000	5.327968	0.024532	6.286472
2970.000000	5.326923	-0.011754	6.286472
2971.000000	5.325877	0.007336	6.286472
2972.000000	5.324808	-0.011659	6.286472
2973.000000	5.323710	-0.004872	6.286472
2974.000000	5.322605	-0.001473	6.286472
2975.000000	5.321515	0.003690	6.286472
2976.000000	5.320442	-0.006599	6.286472
2977.000000	5.319376	0.001817	6.286472
2978.000000	5.318319	0.017228	6.286472
2979.000000	5.317266	-7.815627E-5	6.286472
2980.000000	5.316211	-0.006763	6.286472
2981.000000	5.315148	-0.005076	6.286472
2982.000000	5.314071	-0.008626	6.286472
2983.000000	5.312983	-0.015304	6.286472
2984.000000	5.311896	-0.006875	6.286472
2985.000000	5.310815	-0.006876	6.286472
2986.000000	5.309722	-0.001901	6.286472
2987.000000	5.308636	-0.020841	6.286472
2988.000000	5.307589	-0.031145	6.286472
2989.000000	5.306542	-0.024063	6.286472
2990.000000	5.305460	-0.043117	6.286472
2991.000000	5.304367	-0.013795	6.286472
2992.000000	5.303280	-0.024216	6.286472
2993.000000	5.302198	-0.015561	6.286472
2994.000000	5.301106	-0.019312	6.286472
2995.000000	5.299996	-0.033121	6.286472
2996.000000	5.298872	-0.019065	6.286472
2997.000000	5.297747	-0.029329	6.286472
2998.000000	5.296629	-0.013903	6.286472
2999.000000	5.295519	-0.029513	6.286472
3000.000000	5.294425	-0.038223	6.286472
3001.000000	5.293356	-0.029446	6.286472
