0.000000	1.136210	-0.011916	100.000000
1.000000	1.127496	-0.019002	100.000000
2.000000	1.110859	-0.022464	100.000000
3.000000	1.087405	-0.010608	100.000000
4.000000	1.058160	-0.010348	100.000000
5.000000	1.024066	-0.036408	100.000000
6.000000	0.985993	-0.003491	100.000000
7.000000	0.944740	0.003186	100.000000
8.000000	0.901024	-0.022464	100.000000
9.000000	0.855488	-0.027422	100.000000
10.000000	0.808720	-0.006991	100.000000
11.000000	0.761258	-0.003852	100.000000
12.000000	0.713572	-0.013710	100.000000
13.000000	0.666067	-0.022703	100.000000
14.000000	0.619099	-0.010670	100.000000
15.000000	0.572982	0.003042	100.000000
16.000000	0.527993	-0.008716	100.000000
17.000000	0.484354	-0.003780	100.000000
18.000000	0.442251	-0.003697	100.000000
19.000000	0.401840	0.001521	100.000000
20.000000	0.363229	-0.017033	100.000000
21.000000	0.326484	-0.018789	100.000000
22.000000	0.291665	-0.012057	100.000000
23.000000	0.258831	-0.006722	100.000000
24.000000	0.228008	-0.012186	100.000000
25.000000	0.199194	-0.005194	100.000000
26.000000	0.172369	-0.005113	100.000000
27.000000	0.147499	-0.021867	100.000000
28.000000	0.124536	-0.022403	100.000000
29.000000	0.103430	-0.008678	100.000000
30.000000	0.084124	-0.025771	100.000000
31.000000	0.066551	-0.017081	100.000000
32.000000	0.050642	-0.012084	100.000000
33.000000	0.036338	-0.008564	100.000000
34.000000	0.023552	-0.006780	100.000000
35.000000	0.012189	-0.006799	100.000000
36.000000	0.002163	-0.018833	100.000000
37.000000	-0.006605	-0.018856	100.000000
38.000000	-0.014198	-0.015383	100.000000
39.000000	-0.020701	-0.006914	100.000000
40.000000	-0.026192	-0.013592	100.000000
41.000000	-0.030755	-0.010184	100.000000
42.000000	-0.034487	-0.020585	100.000000
43.000000	-0.037462	-0.013805	100.000000
44.000000	-0.039742	-0.005182	100.000000
45.000000	-0.041389	-0.001800	100.000000
46.000000	-0.042477	-0.020447	100.000000
47.000000	-0.043070	-0.020487	100.000000
48.000000	-0.043230	-0.013678	100.000000
49.000000	-0.043013	-0.015372	100.000000
50.000000	-0.042459	-0.001964	100.000000
51.000000	-0.041594	-0.010504	100.000000
52.000000	-0.040449	-0.020584	100.000000
53.000000	-0.039074	-0.029244	100.000000
54.000000	-0.037529	-0.017149	100.000000
55.000000	-0.035864	-0.023859	100.000000
56.000000	-0.034111	-0.015507	100.000000
57.000000	-0.032265	0.003368	100.000000
58.000000	-0.030321	-0.024265	100.000000
59.000000	-0.028321	-0.025938	100.000000
60.000000	-0.026300	-0.001999	100.000000
61.000000	-0.024265	-0.012061	100.000000
62.000000	-0.022227	-0.029423	100.000000
63.000000	-0.020219	-0.010487	100.000000
64.000000	-0.018262	-0.008741	100.000000
65.000000	-0.016357	-0.001768	100.000000
66.000000	-0.014495	-0.010637	100.000000
67.000000	-0.012673	-0.001881	100.000000
68.000000	-0.010909	-0.014000	100.000000
69.000000	-0.009219	-0.003670	100.000000
70.000000	-0.007602	-0.010420	100.000000
71.000000	-0.006063	-0.022377	100.000000
72.000000	-0.004602	-0.005458	100.000000
73.000000	-0.003214	-0.023873	100.000000
74.000000	-0.001899	-0.012164	100.000000
75.000000	-0.000649	0.003360	100.000000
76.000000	0.000536	-0.010466	100.000000
77.000000	0.001640	-0.018890	100.000000
78.000000	0.002659	-0.001711	100.000000
79.000000	0.003612	-0.008530	100.000000
80.000000	0.004520	-0.008683	100.000000
81.000000	0.005380	-0.007190	100.000000
82.000000	0.006182	-0.012034	100.000000
83.000000	0.006924	-0.003136	100.000000
84.000000	0.007618	-0.003494	100.000000
85.000000	0.008265	-0.005091	100.000000
86.000000	0.008866	0.000201	100.000000
87.000000	0.009428	0.004902	100.000000
88.000000	0.009951	-0.010233	100.000000
89.000000	0.010437	-0.013820	100.000000
90.000000	0.010889	0.005231	100.000000
91.000000	0.011308	-0.023920	100.000000
92.000000	0.011691	-0.008334	100.000000
93.000000	0.012032	-0.013592	100.000000
94.000000	0.012334	-0.015271	100.000000
95.000000	0.012602	-0.006883	100.000000
96.000000	0.012851	-0.008394	100.000000
97.000000	0.013096	-0.005051	100.000000
98.000000	0.013339	-0.012024	100.000000
99.000000	0.013573	-0.010043	100.000000
100.000000	0.013784	-0.001565	100.000000
101.000000	0.013972	-0.005002	100.000000
102.000000	0.014145	-0.025284	100.000000
103.000000	0.014306	-0.023749	100.000000
104.000000	0.014449	-0.021677	100.000000
105.000000	0.014573	-0.015371	100.000000
106.000000	0.014676	-0.025490	100.000000
107.000000	0.014759	-0.008351	100.000000
108.000000	0.014815	-0.016764	100.000000
109.000000	0.014839	-0.027279	100.000000
110.000000	0.014837	-0.027151	100.000000
111.000000	0.014818	-0.033900	100.000000
112.000000	0.014791	-0.015032	100.000000
113.000000	0.014769	-0.018609	100.000000
114.000000	0.014756	-0.018638	100.000000
115.000000	0.014748	-0.030453	100.000000
116.000000	0.014741	-0.020400	100.000000
117.000000	0.014733	-0.011783	100.000000
118.000000	0.014733	-0.006658	100.000000
119.000000	0.014742	-0.020302	100.000000
120.000000	0.014753	-0.015249	100.000000
121.000000	0.014765	-0.018450	100.000000
122.000000	0.014772	-0.023900	100.000000
123.000000	0.014764	-0.013492	100.000000
124.000000	0.014746	-0.020509	100.000000
125.000000	0.014716	-0.016711	100.000000
126.000000	0.014673	-0.025534	100.000000
127.000000	0.014625	-0.015093	100.000000
128.000000	0.014567	-0.027232	100.000000
129.000000	0.014490	-0.010094	100.000000
130.000000	0.014413	-0.027268	100.000000
131.000000	0.014345	-0.027177	100.000000
132.000000	0.014289	-0.030593	100.000000
133.000000	0.014247	-0.010016	100.000000
134.000000	0.014220	-0.008475	100.000000
135.000000	0.014204	-0.028778	100.000000
136.000000	0.014188	-0.020538	100.000000
137.000000	0.014172	-0.013543	100.000000
138.000000	0.014163	-0.032390	100.000000
139.000000	0.014162	-0.023839	100.000000
140.000000	0.014159	-0.027163	100.000000
141.000000	0.014155	-0.015320	100.000000
142.000000	0.014169	-0.011785	100.000000
143.000000	0.014214	-0.029163	100.000000
144.000000	0.014281	-0.028856	100.000000
145.000000	0.014353	-0.008521	100.000000
146.000000	0.014421	-0.034049	100.000000
147.000000	0.014492	-0.020421	100.000000
148.000000	0.014589	-0.030768	100.000000
149.000000	0.014720	-0.025693	100.000000
150.000000	0.014879	-0.025620	100.000000
151.000000	0.015068	-0.011847	100.000000
152.000000	0.015279	-0.030595	100.000000
153.000000	0.015509	-0.027051	100.000000
154.000000	0.015757	-0.013552	100.000000
155.000000	0.016017	-0.026887	100.000000
156.000000	0.016282	-0.020280	100.000000
157.000000	0.016545	-0.023531	100.000000
158.000000	0.016803	-0.015264	100.000000
159.000000	0.017067	-0.010089	100.000000
160.000000	0.017343	-0.022075	100.000000
161.000000	0.017611	-0.023772	100.000000
162.000000	0.017859	-0.023874	100.000000
163.000000	0.018090	-0.008308	100.000000
164.000000	0.018308	-0.023803	100.000000
165.000000	0.018503	-0.010052	100.000000
166.000000	0.018683	-0.025746	100.000000
167.000000	0.018855	-0.011373	100.000000
168.000000	0.019016	-0.006818	100.000000
169.000000	0.019167	-0.011631	100.000000
170.000000	0.019294	-0.008334	100.000000
171.000000	0.019392	-0.013392	100.000000
172.000000	0.019471	-0.013465	100.000000
173.000000	0.019536	-0.015004	100.000000
174.000000	0.019592	-0.011661	100.000000
175.000000	0.019637	-0.020037	100.000000
176.000000	0.019677	-0.015031	100.000000
177.000000	0.019706	-0.023635	100.000000
178.000000	0.019718	-0.003113	100.000000
179.000000	0.019713	-0.030422	100.000000
180.000000	0.019685	-0.020378	100.000000
181.000000	0.019627	-0.025220	100.000000
182.000000	0.019541	-0.025458	100.000000
183.000000	0.019430	-0.035774	100.000000
184.000000	0.019285	-0.035648	100.000000
185.000000	0.019102	-0.018569	100.000000
186.000000	0.018899	-0.018486	100.000000
187.000000	0.018681	-0.016726	100.000000
188.000000	0.018442	-0.025569	100.000000
189.000000	0.018189	-0.032241	100.000000
190.000000	0.017927	-0.032491	100.000000
191.000000	0.017654	-0.025434	100.000000
192.000000	0.017377	-0.018725	100.000000
193.000000	0.017114	-0.028736	100.000000
194.000000	0.016871	-0.023972	100.000000
195.000000	0.016653	-0.016968	100.000000
196.000000	0.016456	-0.022130	100.000000
197.000000	0.016275	-0.016838	100.000000
198.000000	0.016107	-0.010344	100.000000
199.000000	0.015954	-0.015232	100.000000
200.000000	0.015807	-0.022264	100.000000
201.000000	0.015665	-0.034003	100.000000
202.000000	0.015545	-0.027471	100.000000
203.000000	0.015455	-0.006603	100.000000
204.000000	0.015395	-0.032647	100.000000
205.000000	0.015366	-0.011785	100.000000
206.000000	0.015361	-0.020394	100.000000
207.000000	0.015376	-0.025597	100.000000
208.000000	0.015408	-0.004993	100.000000
209.000000	0.015460	-0.011800	100.000000
210.000000	0.015534	-0.011786	100.000000
211.000000	0.015630	-0.003097	100.000000
212.000000	0.015749	-0.013448	100.000000
213.000000	0.015890	-0.010018	100.000000
214.000000	0.016041	-0.010058	100.000000
215.000000	0.016180	-0.015163	100.000000
216.000000	0.016292	-0.006603	100.000000
217.000000	0.016382	-0.020440	100.000000
218.000000	0.016475	-0.006692	100.000000
219.000000	0.016590	-0.011807	100.000000
220.000000	0.016700	-0.024019	100.000000
221.000000	0.016788	0.003526	100.000000
222.000000	0.016874	-0.025337	100.000000
223.000000	0.016962	-0.006569	100.000000
224.000000	0.017051	-0.016989	100.000000
225.000000	0.017136	-0.003215	100.000000
226.000000	0.017214	-0.011784	100.000000
227.000000	0.017289	-0.013561	100.000000
228.000000	0.017364	0.006877	100.000000
229.000000	0.017432	-0.015115	100.000000
230.000000	0.017487	-0.018445	100.000000
231.000000	0.017515	-0.025428	100.000000
232.000000	0.017504	-0.013326	100.000000
233.000000	0.017459	-0.009987	100.000000
234.000000	0.017403	-0.025410	100.000000
235.000000	0.017332	-0.030463	100.000000
236.000000	0.017240	-0.015358	100.000000
237.000000	0.017134	-0.011803	100.000000
238.000000	0.017020	-0.023604	100.000000
239.000000	0.016883	-0.016781	100.000000
240.000000	0.016707	-0.006561	100.000000
241.000000	0.016508	-0.011773	100.000000
242.000000	0.016307	-0.032378	100.000000
243.000000	0.016097	-0.028997	100.000000
244.000000	0.015867	-0.003013	100.000000
245.000000	0.015614	-0.015249	100.000000
246.000000	0.015337	-0.023788	100.000000
247.000000	0.015027	-0.032103	100.000000
248.000000	0.014689	-0.011817	100.000000
249.000000	0.014355	-0.015470	100.000000
250.000000	0.014058	-0.020341	100.000000
251.000000	0.013804	-0.018858	100.000000
252.000000	0.013562	-0.020308	100.000000
253.000000	0.013316	-0.018776	100.000000
254.000000	0.013090	-0.006657	100.000000
255.000000	0.012894	0.006741	100.000000
256.000000	0.012723	-0.006789	100.000000
257.000000	0.012586	-0.015641	100.000000
258.000000	0.012487	-0.013650	100.000000
259.000000	0.012426	-0.010097	100.000000
260.000000	0.012399	-0.020363	100.000000
261.000000	0.012394	0.000125	100.000000
262.000000	0.012404	-0.020570	100.000000
263.000000	0.012424	-0.010073	100.000000
264.000000	0.012447	-0.006835	100.000000
265.000000	0.012482	-0.008238	100.000000
266.000000	0.012529	-0.001587	100.000000
267.000000	0.012580	-0.006449	100.000000
268.000000	0.012627	-0.008413	100.000000
269.000000	0.012673	-0.016976	100.000000
270.000000	0.012731	-0.010108	100.000000
271.000000	0.012804	-0.006511	100.000000
272.000000	0.012880	-0.013755	100.000000
273.000000	0.012954	-0.001575	100.000000
274.000000	0.013023	0.003645	100.000000
275.000000	0.013093	0.007012	100.000000
276.000000	0.013175	0.001749	100.000000
277.000000	0.013265	-0.008571	100.000000
278.000000	0.013361	-0.008705	100.000000
279.000000	0.013457	-0.015181	100.000000
280.000000	0.013546	-0.010164	100.000000
281.000000	0.013628	0.002096	100.000000
282.000000	0.013707	-0.012138	100.000000
283.000000	0.013779	-0.023562	100.000000
284.000000	0.013840	-0.015323	100.000000
285.000000	0.013888	-0.013483	100.000000
286.000000	0.013936	-0.016986	100.000000
287.000000	0.013986	-0.018545	100.000000
288.000000	0.014018	-0.010069	100.000000
289.000000	0.014035	-0.022235	100.000000
290.000000	0.014031	0.008653	100.000000
291.000000	0.013986	0.000228	100.000000
292.000000	0.013893	-0.018695	100.000000
293.000000	0.013759	-0.006745	100.000000
294.000000	0.013595	-0.015235	100.000000
295.000000	0.013420	-0.018833	100.000000
296.000000	0.013240	-0.018561	100.000000
297.000000	0.013042	-0.021988	100.000000
298.000000	0.012829	-0.029445	100.000000
299.000000	0.012617	-0.016882	100.000000
300.000000	0.012397	-5.209115E-5	100.000000
301.000000	0.012170	-0.022097	100.000000
302.000000	0.011957	-0.015525	100.000000
303.000000	0.011765	-0.029110	100.000000
304.000000	0.011587	-0.015582	100.000000
305.000000	0.011434	-0.001806	100.000000
306.000000	0.011312	-0.000134	100.000000
307.000000	0.011204	-0.008576	100.000000
308.000000	0.011098	-0.015539	100.000000
309.000000	0.010990	-0.018948	100.000000
310.000000	0.010886	-0.008820	100.000000
311.000000	0.010795	-0.022113	100.000000
312.000000	0.010709	-0.027488	100.000000
313.000000	0.010626	-0.013810	100.000000
314.000000	0.010559	-0.005371	100.000000
315.000000	0.010507	-0.020745	100.000000
316.000000	0.010463	-0.015809	100.000000
317.000000	0.010442	-0.022217	100.000000
318.000000	0.010465	-0.000190	100.000000
319.000000	0.010518	-0.025563	100.000000
320.000000	0.010571	0.001382	100.000000
321.000000	0.010615	-0.013719	100.000000
322.000000	0.010647	-0.012210	100.000000
323.000000	0.010662	0.005257	100.000000
324.000000	0.010652	-0.024169	100.000000
325.000000	0.010614	-0.001745	100.000000
326.000000	0.010558	-0.013820	100.000000
327.000000	0.010504	-0.008177	100.000000
328.000000	0.010463	0.008382	100.000000
329.000000	0.010453	-0.020599	100.000000
330.000000	0.010473	-0.008500	100.000000
331.000000	0.010506	-0.005325	100.000000
332.000000	0.010541	-0.013669	100.000000
333.000000	0.010559	-0.015220	100.000000
334.000000	0.010561	-0.017193	100.000000
335.000000	0.010573	-0.008537	100.000000
336.000000	0.010600	-0.001595	100.000000
337.000000	0.010618	-0.008785	100.000000
338.000000	0.010624	-0.013982	100.000000
339.000000	0.010627	-0.001949	100.000000
340.000000	0.010624	0.008742	100.000000
341.000000	0.010614	-0.001672	100.000000
342.000000	0.010609	-0.027566	100.000000
343.000000	0.010607	-0.010176	100.000000
344.000000	0.010591	-0.008523	100.000000
345.000000	0.010556	-0.027252	100.000000
346.000000	0.010492	-0.011871	100.000000
347.000000	0.010392	-0.016857	100.000000
348.000000	0.010260	-0.008701	100.000000
349.000000	0.010100	-0.015508	100.000000
350.000000	0.009917	-0.010315	100.000000
351.000000	0.009712	-0.015416	100.000000
352.000000	0.009493	-0.022311	100.000000
353.000000	0.009266	-0.020843	100.000000
354.000000	0.009030	-0.017180	100.000000
355.000000	0.008786	-0.025697	100.000000
356.000000	0.008546	-0.017147	100.000000
357.000000	0.008316	-0.015519	100.000000
358.000000	0.008101	-0.034273	100.000000
359.000000	0.007887	-0.037514	100.000000
360.000000	0.007661	-0.020545	100.000000
361.000000	0.007434	-0.022461	100.000000
362.000000	0.007213	-0.013774	100.000000
363.000000	0.007002	-0.006917	100.000000
364.000000	0.006804	-0.025705	100.000000
365.000000	0.006615	-0.020835	100.000000
366.000000	0.006433	-0.017130	100.000000
367.000000	0.006258	-0.015545	100.000000
368.000000	0.006104	-0.019086	100.000000
369.000000	0.005990	-0.008794	100.000000
370.000000	0.005921	-0.025570	100.000000
371.000000	0.005878	-0.003687	100.000000
372.000000	0.005860	-0.010340	100.000000
373.000000	0.005885	-0.005093	100.000000
374.000000	0.005956	-0.020538	100.000000
375.000000	0.006058	-0.015775	100.000000
376.000000	0.006178	-0.012035	100.000000
377.000000	0.006310	-0.007090	100.000000
378.000000	0.006455	-0.027441	100.000000
379.000000	0.006611	-0.019117	100.000000
380.000000	0.006771	0.003414	100.000000
381.000000	0.006942	-0.017270	100.000000
382.000000	0.007122	3.529513E-6	100.000000
383.000000	0.007301	-0.025813	100.000000
384.000000	0.007470	-0.029282	100.000000
385.000000	0.007630	-0.008759	100.000000
386.000000	0.007781	-0.027323	100.000000
387.000000	0.007924	-0.005238	100.000000
388.000000	0.008066	-0.013679	100.000000
389.000000	0.008202	-0.018837	100.000000
390.000000	0.008334	-0.003522	100.000000
391.000000	0.008476	-0.006820	100.000000
392.000000	0.008618	-0.010391	100.000000
393.000000	0.008753	-0.017059	100.000000
394.000000	0.008878	-0.010433	100.000000
395.000000	0.008987	-0.032363	100.000000
396.000000	0.009079	-0.015275	100.000000
397.000000	0.009149	-0.025536	100.000000
398.000000	0.009203	-0.003472	100.000000
399.000000	0.009253	-0.015194	100.000000
400.000000	0.009303	-0.011818	100.000000
401.000000	0.009361	-0.017005	100.000000
402.000000	0.009428	-0.018785	100.000000
403.000000	0.009489	-0.011715	100.000000
404.000000	0.009533	-0.018836	100.000000
405.000000	0.009558	0.007027	100.000000
406.000000	0.009565	-0.019075	100.000000
407.000000	0.009552	-0.020567	100.000000
408.000000	0.009512	-0.013687	100.000000
409.000000	0.009453	-0.019091	100.000000
410.000000	0.009390	-0.020473	100.000000
411.000000	0.009324	-0.013884	100.000000
412.000000	0.009248	-0.003567	100.000000
413.000000	0.009169	-0.023998	100.000000
414.000000	0.009082	-0.020500	100.000000
415.000000	0.008988	-0.029104	100.000000
416.000000	0.008900	-0.017125	100.000000
417.000000	0.008822	-0.017101	100.000000
418.000000	0.008759	-0.012368	100.000000
419.000000	0.008720	-0.018940	100.000000
420.000000	0.008709	-0.017390	100.000000
421.000000	0.008729	-0.019049	100.000000
422.000000	0.008774	-0.019171	100.000000
423.000000	0.008837	-0.022433	100.000000
424.000000	0.008912	-0.018836	100.000000
425.000000	0.009000	-0.003431	100.000000
426.000000	0.009117	-0.006959	100.000000
427.000000	0.009250	-0.017213	100.000000
428.000000	0.009387	-0.006881	100.000000
429.000000	0.009547	-0.015518	100.000000
430.000000	0.009739	-0.017108	100.000000
431.000000	0.009946	-0.010293	100.000000
432.000000	0.010159	-0.006876	100.000000
433.000000	0.010383	-0.006730	100.000000
434.000000	0.010611	-0.010374	100.000000
435.000000	0.010834	-0.006873	100.000000
436.000000	0.011046	-0.027111	100.000000
437.000000	0.011240	-0.022150	100.000000
438.000000	0.011426	-0.001760	100.000000
439.000000	0.011603	-0.026960	100.000000
440.000000	0.011770	-0.006793	100.000000
441.000000	0.011930	-0.028885	100.000000
442.000000	0.012072	-0.017094	100.000000
443.000000	0.012194	0.003623	100.000000
444.000000	0.012301	-0.023925	100.000000
445.000000	0.012379	-0.018679	100.000000
446.000000	0.012428	-0.006870	100.000000
447.000000	0.012455	-0.015305	100.000000
448.000000	0.012466	-0.023895	100.000000
449.000000	0.012449	-0.030715	100.000000
450.000000	0.012391	-0.018772	100.000000
451.000000	0.012310	-0.008564	100.000000
452.000000	0.012223	-0.016855	100.000000
453.000000	0.012130	-0.020638	100.000000
454.000000	0.012032	-0.011861	100.000000
455.000000	0.011921	-0.018712	100.000000
456.000000	0.011801	-0.018787	100.000000
457.000000	0.011673	-0.022151	100.000000
458.000000	0.011534	-0.032355	100.000000
459.000000	0.011392	-0.037798	100.000000
460.000000	0.011253	-0.024018	100.000000
461.000000	0.011122	-0.008445	100.000000
462.000000	0.010988	-0.020339	100.000000
463.000000	0.010849	-0.036025	100.000000
464.000000	0.010712	-0.017007	100.000000
465.000000	0.010579	-0.005327	100.000000
466.000000	0.010454	-0.013543	100.000000
467.000000	0.010334	-0.020563	100.000000
468.000000	0.010234	-0.029187	100.000000
469.000000	0.010182	-0.010513	100.000000
470.000000	0.010184	-0.029316	100.000000
471.000000	0.010225	-0.029491	100.000000
472.000000	0.010302	-0.022343	100.000000
473.000000	0.010402	-0.029144	100.000000
474.000000	0.010504	-0.013889	100.000000
475.000000	0.010613	-0.034632	100.000000
476.000000	0.010734	-0.022152	100.000000
477.000000	0.010863	-0.003790	100.000000
478.000000	0.011007	-0.005141	100.000000
479.000000	0.011170	-0.024285	100.000000
480.000000	0.011348	-0.022419	100.000000
481.000000	0.011541	-0.008825	100.000000
482.000000	0.011742	-0.013805	100.000000
483.000000	0.011949	-0.011997	100.000000
484.000000	0.012162	-0.025821	100.000000
485.000000	0.012374	-0.010438	100.000000
486.000000	0.012584	-0.018765	100.000000
487.000000	0.012788	-0.001737	100.000000
488.000000	0.012988	-0.015500	100.000000
489.000000	0.013189	-0.017108	100.000000
490.000000	0.013387	-0.010327	100.000000
491.000000	0.013576	-0.008274	100.000000
492.000000	0.013759	-0.010399	100.000000
493.000000	0.013946	-0.008305	100.000000
494.000000	0.014126	-0.013671	100.000000
495.000000	0.014296	-0.018500	100.000000
496.000000	0.014457	-0.015387	100.000000
497.000000	0.014616	-0.001688	100.000000
498.000000	0.014785	-0.034323	100.000000
499.000000	0.014964	-0.018770	100.000000
500.000000	0.015128	0.001756	100.000000
501.000000	0.015246	-0.010178	100.000000
502.000000	0.015318	-0.022167	100.000000
503.000000	0.015363	-0.022179	100.000000
504.000000	0.015390	-0.017125	100.000000
505.000000	0.015399	-0.018676	100.000000
506.000000	0.015384	-0.018872	100.000000
507.000000	0.015342	-0.022246	100.000000
508.000000	0.015277	-0.042890	100.000000
509.000000	0.015192	-0.001620	100.000000
510.000000	0.015076	-0.013667	100.000000
511.000000	0.014928	-0.006877	100.000000
512.000000	0.014758	-0.022268	100.000000
513.000000	0.014568	-0.003346	100.000000
514.000000	0.014362	-0.015491	100.000000
515.000000	0.014141	-0.025471	100.000000
516.000000	0.013908	0.003412	100.000000
517.000000	0.013672	-0.027441	100.000000
518.000000	0.013442	-0.025931	100.000000
519.000000	0.013221	-0.015477	100.000000
520.000000	0.013009	0.008392	100.000000
521.000000	0.012792	-0.027360	100.000000
522.000000	0.012572	-0.017411	100.000000
523.000000	0.012362	-0.011993	100.000000
524.000000	0.012169	-0.029207	100.000000
525.000000	0.011980	-0.012060	100.000000
526.000000	0.011809	-0.010530	100.000000
527.000000	0.011666	-0.017297	100.000000
528.000000	0.011541	-0.010428	100.000000
529.000000	0.011439	-0.020634	100.000000
530.000000	0.011372	-1.431553E-5	100.000000
531.000000	0.011333	-0.020694	100.000000
532.000000	0.011306	-0.013898	100.000000
533.000000	0.011277	-0.015642	100.000000
534.000000	0.011263	3.656126E-5	100.000000
535.000000	0.011272	-0.020766	100.000000
536.000000	0.011289	-0.008604	100.000000
537.000000	0.011313	-0.013643	100.000000
538.000000	0.011341	-0.001804	100.000000
539.000000	0.011375	0.003350	100.000000
540.000000	0.011419	-0.005121	100.000000
541.000000	0.011470	-0.022374	100.000000
542.000000	0.011531	0.003744	100.000000
543.000000	0.011604	-0.019003	100.000000
544.000000	0.011687	0.006983	100.000000
545.000000	0.011778	-0.005060	100.000000
546.000000	0.011868	-0.007006	100.000000
547.000000	0.011946	0.001620	100.000000
548.000000	0.012004	-0.010158	100.000000
549.000000	0.012034	-0.011843	100.000000
550.000000	0.012025	-0.016918	100.000000
551.000000	0.011969	-0.022208	100.000000
552.000000	0.011881	-0.010292	100.000000
553.000000	0.011774	-0.022082	100.000000
554.000000	0.011648	-0.017209	100.000000
555.000000	0.011515	-0.030919	100.000000
556.000000	0.011382	-0.012072	100.000000
557.000000	0.011241	-0.018645	100.000000
558.000000	0.011090	-0.012133	100.000000
559.000000	0.010935	-0.023938	100.000000
560.000000	0.010762	-0.022323	100.000000
561.000000	0.010560	-0.034377	100.000000
562.000000	0.010339	-0.010021	100.000000
563.000000	0.010119	-0.006608	100.000000
564.000000	0.009903	0.000115	100.000000
565.000000	0.009688	0.008344	100.000000
566.000000	0.009484	-0.010454	100.000000
567.000000	0.009280	-0.015344	100.000000
568.000000	0.009059	-0.012061	100.000000
569.000000	0.008835	-0.015496	100.000000
570.000000	0.008622	-0.022353	100.000000
571.000000	0.008420	-0.010306	100.000000
572.000000	0.008225	-0.025835	100.000000
573.000000	0.008051	-0.003626	100.000000
574.000000	0.007910	-0.020497	100.000000
575.000000	0.007793	-0.021003	100.000000
576.000000	0.007696	-0.029160	100.000000
577.000000	0.007624	-0.005488	100.000000
578.000000	0.007577	-0.003556	100.000000
579.000000	0.007555	-0.008774	100.000000
580.000000	0.007564	-0.024007	100.000000
581.000000	0.007604	-0.008993	100.000000
582.000000	0.007668	-0.015636	100.000000
583.000000	0.007748	-0.012285	100.000000
584.000000	0.007851	-0.020637	100.000000
585.000000	0.007985	-0.027682	100.000000
586.000000	0.008133	-0.010796	100.000000
587.000000	0.008278	-0.025891	100.000000
588.000000	0.008424	-0.000396	100.000000
589.000000	0.008586	-0.008472	100.000000
590.000000	0.008776	-0.015471	100.000000
591.000000	0.008993	-0.006691	100.000000
592.000000	0.009218	-0.020428	100.000000
593.000000	0.009428	0.000241	100.000000
594.000000	0.009623	-0.010240	100.000000
595.000000	0.009817	-0.006716	100.000000
596.000000	0.009985	-0.015425	100.000000
597.000000	0.010114	-0.020557	100.000000
598.000000	0.010224	-0.027387	100.000000
599.000000	0.010303	-0.020304	100.000000
600.000000	0.010329	-0.017197	100.000000
601.000000	0.010324	-0.022304	100.000000
602.000000	0.010303	0.000114	100.000000
603.000000	0.010260	-0.025559	100.000000
604.000000	0.010209	-0.015482	100.000000
605.000000	0.010164	-0.020705	100.000000
606.000000	0.010131	-0.013824	100.000000
607.000000	0.010116	-0.013906	100.000000
608.000000	0.010112	-0.017163	100.000000
609.000000	0.010120	-0.020643	100.000000
610.000000	0.010150	-0.019017	100.000000
611.000000	0.010203	-0.030922	100.000000
612.000000	0.010269	-0.008765	100.000000
613.000000	0.010325	-0.016964	100.000000
614.000000	0.010356	-0.007123	100.000000
615.000000	0.010388	-0.011881	100.000000
616.000000	0.010444	-0.024096	100.000000
617.000000	0.010523	-0.015413	100.000000
618.000000	0.010620	-0.020643	100.000000
619.000000	0.010730	-0.022492	100.000000
620.000000	0.010866	-0.001882	100.000000
621.000000	0.011029	-0.008523	100.000000
622.000000	0.011198	-0.011976	100.000000
623.000000	0.011366	-0.012116	100.000000
624.000000	0.011539	0.001883	100.000000
625.000000	0.011718	-0.005128	100.000000
626.000000	0.011907	0.010382	100.000000
627.000000	0.012099	-0.025539	100.000000
628.000000	0.012289	-0.039329	100.000000
629.000000	0.012480	-0.029166	100.000000
630.000000	0.012667	-0.015115	100.000000
631.000000	0.012848	-0.018855	100.000000
632.000000	0.013029	-0.006556	100.000000
633.000000	0.013209	-0.023649	100.000000
634.000000	0.013384	-0.013643	100.000000
635.000000	0.013531	-0.020282	100.000000
636.000000	0.013631	-0.023709	100.000000
637.000000	0.013688	-0.015283	100.000000
638.000000	0.013720	-0.017119	100.000000
639.000000	0.013733	-0.022098	100.000000
640.000000	0.013714	-0.030767	100.000000
641.000000	0.013653	-0.022193	100.000000
642.000000	0.013557	-0.028914	100.000000
643.000000	0.013436	-0.037871	100.000000
644.000000	0.013312	-0.022182	100.000000
645.000000	0.013203	-0.025704	100.000000
646.000000	0.013110	-0.030967	100.000000
647.000000	0.013039	-0.032670	100.000000
648.000000	0.012982	-0.025581	100.000000
649.000000	0.012920	-0.027300	100.000000
650.000000	0.012849	-0.023943	100.000000
651.000000	0.012788	-0.032778	100.000000
652.000000	0.012745	-0.029192	100.000000
653.000000	0.012722	-0.010501	100.000000
654.000000	0.012715	-0.030782	100.000000
655.000000	0.012722	-0.029231	100.000000
656.000000	0.012746	-0.015480	100.000000
657.000000	0.012785	-0.025762	100.000000
658.000000	0.012839	-0.016996	100.000000
659.000000	0.012911	-0.012253	100.000000
660.000000	0.013004	-0.022359	100.000000
661.000000	0.013122	-0.022225	100.000000
662.000000	0.013255	-0.025709	100.000000
663.000000	0.013382	-0.033875	100.000000
664.000000	0.013497	-0.032450	100.000000
665.000000	0.013614	-0.037540	100.000000
666.000000	0.013739	-0.010248	100.000000
667.000000	0.013868	-0.034141	100.000000
668.000000	0.014000	-0.020395	100.000000
669.000000	0.014135	-0.023758	100.000000
670.000000	0.014265	-0.025500	100.000000
671.000000	0.014379	-0.013348	100.000000
672.000000	0.014471	-0.046088	100.000000
673.000000	0.014545	-0.025593	100.000000
674.000000	0.014613	-0.035604	100.000000
675.000000	0.014663	-0.011756	100.000000
676.000000	0.014690	-0.020291	100.000000
677.000000	0.014701	-0.023819	100.000000
678.000000	0.014700	-0.027451	100.000000
679.000000	0.014686	-0.017016	100.000000
680.000000	0.014651	-0.006681	100.000000
681.000000	0.014592	-0.015166	100.000000
682.000000	0.014514	-0.023950	100.000000
683.000000	0.014411	-0.025473	100.000000
684.000000	0.014283	-0.034412	100.000000
685.000000	0.014150	-0.013678	100.000000
686.000000	0.014012	-0.040975	100.000000
687.000000	0.013866	-0.035915	100.000000
688.000000	0.013722	-0.028913	100.000000
689.000000	0.013580	-0.011967	100.000000
690.000000	0.013429	-0.032289	100.000000
691.000000	0.013262	-0.035975	100.000000
692.000000	0.013086	-0.017171	100.000000
693.000000	0.012901	-0.044618	100.000000
694.000000	0.012709	-0.029323	100.000000
695.000000	0.012519	-0.030896	100.000000
696.000000	0.012351	-0.028959	100.000000
697.000000	0.012215	-0.030721	100.000000
698.000000	0.012100	-0.027453	100.000000
699.000000	0.011996	-0.020487	100.000000
700.000000	0.011905	-0.013710	100.000000
701.000000	0.011831	-0.022254	100.000000
702.000000	0.011778	-0.023951	100.000000
703.000000	0.011758	-0.027087	100.000000
704.000000	0.011769	-0.020490	100.000000
705.000000	0.011793	-0.023907	100.000000
706.000000	0.011833	-0.015463	100.000000
707.000000	0.011898	-0.030842	100.000000
708.000000	0.011983	-0.025494	100.000000
709.000000	0.012092	-0.020557	100.000000
710.000000	0.012242	-0.028867	100.000000
711.000000	0.012425	-0.023691	100.000000
712.000000	0.012627	-0.028809	100.000000
713.000000	0.012851	-0.015405	100.000000
714.000000	0.013092	-0.023902	100.000000
715.000000	0.013338	-0.035998	100.000000
716.000000	0.013590	-0.028925	100.000000
717.000000	0.013841	-0.032131	100.000000
718.000000	0.014075	-0.015333	100.000000
719.000000	0.014283	-0.022104	100.000000
720.000000	0.014464	-0.022093	100.000000
721.000000	0.014614	-0.011625	100.000000
722.000000	0.014724	-0.027187	100.000000
723.000000	0.014801	-0.025593	100.000000
724.000000	0.014838	-0.037472	100.000000
725.000000	0.014818	-0.025425	100.000000
726.000000	0.014752	-0.027414	100.000000
727.000000	0.014657	-0.037612	100.000000
728.000000	0.014544	-0.034164	100.000000
729.000000	0.014420	-0.022246	100.000000
730.000000	0.014289	-0.027331	100.000000
731.000000	0.014151	-0.042712	100.000000
732.000000	0.014003	-0.025563	100.000000
733.000000	0.013852	-0.029170	100.000000
734.000000	0.013714	-0.030673	100.000000
735.000000	0.013588	-0.015499	100.000000
736.000000	0.013475	-0.015234	100.000000
737.000000	0.013371	-0.029312	100.000000
738.000000	0.013268	-0.027241	100.000000
739.000000	0.013166	-0.018899	100.000000
740.000000	0.013088	-0.018913	100.000000
741.000000	0.013044	-0.022363	100.000000
742.000000	0.013025	-0.011949	100.000000
743.000000	0.013029	-0.027468	100.000000
744.000000	0.013054	-0.013809	100.000000
745.000000	0.013084	-0.015503	100.000000
746.000000	0.013109	-0.023974	100.000000
747.000000	0.013138	-0.001803	100.000000
748.000000	0.013185	-0.029149	100.000000
749.000000	0.013249	-0.034125	100.000000
750.000000	0.013319	-0.034297	100.000000
751.000000	0.013389	-0.027314	100.000000
752.000000	0.013461	-0.036050	100.000000
753.000000	0.013528	-0.020549	100.000000
754.000000	0.013586	-0.022156	100.000000
755.000000	0.013639	-0.015474	100.000000
756.000000	0.013694	-0.010269	100.000000
757.000000	0.013756	-0.022042	100.000000
758.000000	0.013832	-0.023811	100.000000
759.000000	0.013925	-0.016864	100.000000
760.000000	0.014027	-0.044542	100.000000
761.000000	0.014138	-0.015494	100.000000
762.000000	0.014262	-0.042809	100.000000
763.000000	0.014377	-0.016936	100.000000
764.000000	0.014478	-0.021959	100.000000
765.000000	0.014578	-0.013576	100.000000
766.000000	0.014672	-0.024050	100.000000
767.000000	0.014751	-0.003258	100.000000
768.000000	0.014815	-0.016712	100.000000
769.000000	0.014863	-0.018753	100.000000
770.000000	0.014888	-0.027085	100.000000
771.000000	0.014893	-0.025625	100.000000
772.000000	0.014881	-0.020314	100.000000
773.000000	0.014844	-0.020366	100.000000
774.000000	0.014784	-0.054756	100.000000
775.000000	0.014711	-0.023825	100.000000
776.000000	0.014632	-0.023663	100.000000
777.000000	0.014535	-0.032402	100.000000
778.000000	0.014418	-0.023891	100.000000
779.000000	0.014285	-0.029044	100.000000
780.000000	0.014126	-0.015268	100.000000
781.000000	0.013950	-0.030580	100.000000
782.000000	0.013769	-0.018803	100.000000
783.000000	0.013589	-0.022196	100.000000
784.000000	0.013403	-0.039323	100.000000
785.000000	0.013218	-0.017057	100.000000
786.000000	0.013052	-0.034403	100.000000
787.000000	0.012906	-0.018720	100.000000
788.000000	0.012782	-0.020661	100.000000
789.000000	0.012691	-0.017142	100.000000
790.000000	0.012636	-0.024523	100.000000
791.000000	0.012617	-0.013564	100.000000
792.000000	0.012639	-0.015531	100.000000
793.000000	0.012697	-0.035964	100.000000
794.000000	0.012779	-0.025828	100.000000
795.000000	0.012887	-0.015192	100.000000
796.000000	0.013036	-0.017139	100.000000
797.000000	0.013229	-0.022223	100.000000
798.000000	0.013450	-0.027262	100.000000
799.000000	0.013678	-0.030752	100.000000
800.000000	0.013907	-0.023807	100.000000
801.000000	0.014153	-0.013900	100.000000
802.000000	0.014427	-0.027345	100.000000
803.000000	0.014715	-0.035948	100.000000
804.000000	0.015006	-0.010031	100.000000
805.000000	0.015309	-0.017017	100.000000
806.000000	0.015625	-0.009889	100.000000
807.000000	0.015943	-0.035562	100.000000
808.000000	0.016256	-0.028876	100.000000
809.000000	0.016549	-0.018462	100.000000
810.000000	0.016810	-0.034085	100.000000
811.000000	0.017048	-0.015120	100.000000
812.000000	0.017277	-0.020359	100.000000
813.000000	0.017499	-0.027257	100.000000
814.000000	0.017700	-0.034153	100.000000
815.000000	0.017862	-0.042540	100.000000
816.000000	0.017979	-0.025592	100.000000
817.000000	0.018059	-0.035789	100.000000
818.000000	0.018115	-0.033976	100.000000
819.000000	0.018153	-0.027107	100.000000
820.000000	0.018175	-0.038867	100.000000
821.000000	0.018179	-0.017052	100.000000
822.000000	0.018163	-0.040896	100.000000
823.000000	0.018124	-0.040921	100.000000
824.000000	0.018059	-0.039153	100.000000
825.000000	0.017978	-0.029171	100.000000
826.000000	0.017898	-0.030649	100.000000
827.000000	0.017837	-0.024006	100.000000
828.000000	0.017807	-0.032315	100.000000
829.000000	0.017817	-0.027196	100.000000
830.000000	0.017856	-0.022055	100.000000
831.000000	0.017918	-0.010244	100.000000
832.000000	0.018013	-0.023838	100.000000
833.000000	0.018146	-0.020236	100.000000
834.000000	0.018295	-0.011662	100.000000
835.000000	0.018454	-0.027141	100.000000
836.000000	0.018619	-0.042565	100.000000
837.000000	0.018794	-0.015096	100.000000
838.000000	0.018981	-0.020121	100.000000
839.000000	0.019166	-0.020278	100.000000
840.000000	0.019349	-0.020183	100.000000
841.000000	0.019542	-0.022005	100.000000
842.000000	0.019732	-0.028665	100.000000
843.000000	0.019901	-0.016853	100.000000
844.000000	0.020045	-0.037365	100.000000
845.000000	0.020154	-0.025460	100.000000
846.000000	0.020226	-0.018473	100.000000
847.000000	0.020268	-0.018626	100.000000
848.000000	0.020284	-0.028696	100.000000
849.000000	0.020273	-0.028897	100.000000
850.000000	0.020233	-0.013432	100.000000
851.000000	0.020153	-0.039222	100.000000
852.000000	0.020034	-0.028874	100.000000
853.000000	0.019903	-0.027218	100.000000
854.000000	0.019793	-0.024104	100.000000
855.000000	0.019712	-0.032199	100.000000
856.000000	0.019635	-0.023835	100.000000
857.000000	0.019550	-0.025429	100.000000
858.000000	0.019477	-0.011808	100.000000
859.000000	0.019425	-0.030747	100.000000
860.000000	0.019400	-0.041030	100.000000
861.000000	0.019393	-0.030701	100.000000
862.000000	0.019398	-0.013517	100.000000
863.000000	0.019416	-0.032366	100.000000
864.000000	0.019447	-0.030470	100.000000
865.000000	0.019492	-0.010021	100.000000
866.000000	0.019566	-0.015124	100.000000
867.000000	0.019660	-0.032357	100.000000
868.000000	0.019759	-0.023674	100.000000
869.000000	0.019870	-0.025441	100.000000
870.000000	0.019999	-0.020237	100.000000
871.000000	0.020142	-0.033912	100.000000
872.000000	0.020295	-0.028821	100.000000
873.000000	0.020453	-0.023699	100.000000
874.000000	0.020629	-0.025283	100.000000
875.000000	0.020830	-0.027321	100.000000
876.000000	0.021053	-0.038738	100.000000
877.000000	0.021294	-0.016758	100.000000
878.000000	0.021558	-0.022068	100.000000
879.000000	0.021844	-0.023669	100.000000
880.000000	0.022121	-0.018110	100.000000
881.000000	0.022365	-0.023579	100.000000
882.000000	0.022577	-0.016492	100.000000
883.000000	0.022761	-0.016819	100.000000
884.000000	0.022922	-0.023559	100.000000
885.000000	0.023067	-0.028740	100.000000
886.000000	0.023196	-0.025346	100.000000
887.000000	0.023308	-0.025010	100.000000
888.000000	0.023407	-0.039033	100.000000
889.000000	0.023486	-0.023442	100.000000
890.000000	0.023538	-0.027098	100.000000
891.000000	0.023567	-0.027106	100.000000
892.000000	0.023583	-0.037465	100.000000
893.000000	0.023587	-0.039207	100.000000
894.000000	0.023591	-0.020100	100.000000
895.000000	0.023612	-0.039052	100.000000
896.000000	0.023663	-0.027198	100.000000
897.000000	0.023758	-0.008355	100.000000
898.000000	0.023901	-0.016751	100.000000
899.000000	0.024078	-0.025237	100.000000
900.000000	0.024275	-0.016860	100.000000
901.000000	0.024490	-0.011478	100.000000
902.000000	0.024726	-0.033844	100.000000
903.000000	0.024991	-0.018487	100.000000
904.000000	0.025283	-0.026657	100.000000
905.000000	0.025581	-0.009773	100.000000
906.000000	0.025881	-0.028831	100.000000
907.000000	0.026190	-0.026932	100.000000
908.000000	0.026512	-0.033786	100.000000
909.000000	0.026848	-0.014728	100.000000
910.000000	0.027192	-0.030328	100.000000
911.000000	0.027551	-0.031841	100.000000
912.000000	0.027920	-0.026881	100.000000
913.000000	0.028296	-0.021650	100.000000
914.000000	0.028680	-0.032050	100.000000
915.000000	0.029065	-0.035550	100.000000
916.000000	0.029453	-0.028175	100.000000
917.000000	0.029854	-0.019830	100.000000
918.000000	0.030272	-0.035330	100.000000
919.000000	0.030698	-0.019723	100.000000
920.000000	0.031123	-0.029980	100.000000
921.000000	0.031535	-0.031932	100.000000
922.000000	0.031922	-0.026621	100.000000
923.000000	0.032292	-0.028253	100.000000
924.000000	0.032661	-0.011439	100.000000
925.000000	0.033045	-0.030090	100.000000
926.000000	0.033452	-0.024978	100.000000
927.000000	0.033884	-0.050753	100.000000
928.000000	0.034341	-0.021731	100.000000
929.000000	0.034821	-0.030292	100.000000
930.000000	0.035337	-0.029992	100.000000
931.000000	0.035896	-0.026720	100.000000
932.000000	0.036505	-0.018225	100.000000
933.000000	0.037159	-0.021430	100.000000
934.000000	0.037849	0.002463	100.000000
935.000000	0.038579	-0.007684	100.000000
936.000000	0.039349	-0.017885	100.000000
937.000000	0.040149	-0.012565	100.000000
938.000000	0.040982	-0.002235	100.000000
939.000000	0.041859	-0.014381	100.000000
940.000000	0.042776	-0.017567	100.000000
941.000000	0.043721	-0.024583	100.000000
942.000000	0.044690	0.001328	100.000000
943.000000	0.045688	-0.002199	100.000000
944.000000	0.046713	0.001163	100.000000
945.000000	0.047766	-0.015850	100.000000
946.000000	0.048842	-0.008866	100.000000
947.000000	0.049930	-0.026038	100.000000
948.000000	0.051010	-0.003562	100.000000
949.000000	0.052071	-0.008538	100.000000
950.000000	0.053115	-0.013981	100.000000
951.000000	0.054141	-0.034304	100.000000
952.000000	0.055147	-0.025887	100.000000
953.000000	0.056154	-0.000314	100.000000
954.000000	0.057189	-0.017348	100.000000
955.000000	0.058260	-0.014063	100.000000
956.000000	0.059367	-0.006966	100.000000
957.000000	0.060509	0.003442	100.000000
958.000000	0.061689	-0.008792	100.000000
959.000000	0.062913	0.006713	100.000000
960.000000	0.064185	-0.008514	100.000000
961.000000	0.065514	-0.001684	100.000000
962.000000	0.066899	-0.010034	100.000000
963.000000	0.068342	0.001904	100.000000
964.000000	0.069857	0.010502	100.000000
965.000000	0.071441	0.000277	100.000000
966.000000	0.073081	0.000371	100.000000
967.000000	0.074788	0.021035	100.000000
968.000000	0.076572	0.012304	100.000000
969.000000	0.078429	0.002349	100.000000
970.000000	0.080337	0.022995	100.000000
971.000000	0.082283	0.011046	100.000000
972.000000	0.084266	0.016145	100.000000
973.000000	0.086276	0.014492	100.000000
974.000000	0.088309	0.002525	100.000000
975.000000	0.090368	0.006173	100.000000
976.000000	0.092445	-0.002457	100.000000
977.000000	0.094541	0.012844	100.000000
978.000000	0.096655	0.009588	100.000000
979.000000	0.098784	0.002710	100.000000
980.000000	0.100914	0.006215	100.000000
981.000000	0.103038	0.011615	100.000000
982.000000	0.105170	0.001195	100.000000
983.000000	0.107324	0.013387	100.000000
984.000000	0.109495	0.009826	100.000000
985.000000	0.111684	0.022127	100.000000
986.000000	0.113891	0.001541	100.000000
987.000000	0.116110	0.016928	100.000000
988.000000	0.118338	-0.005038	100.000000
989.000000	0.120563	0.006935	100.000000
990.000000	0.122780	0.010446	100.000000
991.000000	0.125005	0.001760	100.000000
992.000000	0.127245	-0.013375	100.000000
993.000000	0.129494	0.012171	100.000000
994.000000	0.131750	0.000304	100.000000
995.000000	0.134017	-0.006491	100.000000
996.000000	0.136297	0.016133	100.000000
997.000000	0.138604	0.000552	100.000000
998.000000	0.140950	0.007645	100.000000
999.000000	0.143337	0.005938	100.000000
1000.000000	0.145758	0.009334	100.000000
1001.000000	0.148208	0.017897	100.000000
1002.000000	0.150690	0.011122	100.000000
1003.000000	0.153202	0.002826	100.000000
1004.000000	0.155737	0.007880	100.000000
1005.000000	0.158293	0.011489	100.000000
1006.000000	0.160871	-0.010778	100.000000
1007.000000	0.163481	0.011569	100.000000
1008.000000	0.166139	0.004755	100.000000
1009.000000	0.168856	-0.010354	100.000000
1010.000000	0.171644	0.008284	100.000000
1011.000000	0.174512	-0.003300	100.000000
1012.000000	0.177477	6.029647E-5	100.000000
1013.000000	0.180549	-0.015102	100.000000
1014.000000	0.183721	0.007183	100.000000
1015.000000	0.186993	-0.019940	100.000000
1016.000000	0.190386	0.009222	100.000000
1017.000000	0.193920	0.000855	100.000000
1018.000000	0.197607	0.002621	100.000000
1019.000000	0.201445	0.008226	100.000000
1020.000000	0.205437	0.015054	100.000000
1021.000000	0.209583	0.018554	100.000000
1022.000000	0.213883	-0.010246	100.000000
1023.000000	0.218337	-0.015137	100.000000
1024.000000	0.222938	0.009211	100.000000
1025.000000	0.227688	0.005729	100.000000
1026.000000	0.232589	0.018081	100.000000
1027.000000	0.237622	-0.002222	100.000000
1028.000000	0.242781	0.011334	100.000000
1029.000000	0.248067	-0.007326	100.000000
1030.000000	0.253471	0.015389	100.000000
1031.000000	0.258993	0.010247	100.000000
1032.000000	0.264641	0.007221	100.000000
1033.000000	0.270412	0.000608	100.000000
1034.000000	0.276299	-0.009474	100.000000
1035.000000	0.282296	0.024935	100.000000
1036.000000	0.288408	0.014860	100.000000
1037.000000	0.294649	0.001439	100.000000
1038.000000	0.301010	0.005052	100.000000
1039.000000	0.307480	0.000191	100.000000
1040.000000	0.314054	0.000639	100.000000
1041.000000	0.320743	0.005775	100.000000
1042.000000	0.327561	0.006094	100.000000
1043.000000	0.334511	-0.009086	100.000000
1044.000000	0.341591	-0.022614	100.000000
1045.000000	0.348799	-0.008759	100.000000
1046.000000	0.356132	-0.015261	100.000000
1047.000000	0.363580	-0.023644	100.000000
1048.000000	0.371125	-0.011108	100.000000
1049.000000	0.378763	-0.006023	100.000000
1050.000000	0.386511	-0.015769	100.000000
1051.000000	0.394379	-0.008943	100.000000
1052.000000	0.402375	-0.008615	100.000000
1053.000000	0.410494	-0.020179	100.000000
1054.000000	0.418711	-0.014853	100.000000
1055.000000	0.427020	-0.016500	100.000000
1056.000000	0.435423	-0.024373	100.000000
1057.000000	0.443908	-0.027804	100.000000
1058.000000	0.452472	-0.027301	100.000000
1059.000000	0.461119	-0.032255	100.000000
1060.000000	0.469851	-0.026722	100.000000
1061.000000	0.478665	-0.022893	100.000000
1062.000000	0.487567	-0.036361	100.000000
1063.000000	0.496578	-0.037680	100.000000
1064.000000	0.505699	-0.032205	100.000000
1065.000000	0.514907	-0.045424	100.000000
1066.000000	0.524197	-0.019626	100.000000
1067.000000	0.533599	-0.037961	100.000000
1068.000000	0.543126	-0.032651	100.000000
1069.000000	0.552768	-0.064723	100.000000
1070.000000	0.562512	-0.035416	100.000000
1071.000000	0.572353	-0.043388	100.000000
1072.000000	0.582281	-0.048504	100.000000
1073.000000	0.592295	-0.042821	100.000000
1074.000000	0.602411	-0.061292	100.000000
1075.000000	0.612639	-0.060636	100.000000
1076.000000	0.622976	-0.072562	100.000000
1077.000000	0.633426	-0.068805	100.000000
1078.000000	0.643997	-0.061405	100.000000
1079.000000	0.654692	-0.065990	100.000000
1080.000000	0.665509	-0.073968	100.000000
1081.000000	0.676448	-0.092436	100.000000
1082.000000	0.687516	-0.080171	100.000000
1083.000000	0.698728	-0.072684	100.000000
1084.000000	0.710091	-0.092376	100.000000
1085.000000	0.721628	-0.077007	100.000000
1086.000000	0.733369	-0.124191	100.000000
1087.000000	0.745308	-0.091139	100.000000
1088.000000	0.757437	-0.097427	100.000000
1089.000000	0.769756	-0.100110	100.000000
1090.000000	0.782265	-0.106231	100.000000
1091.000000	0.794972	-0.102299	100.000000
1092.000000	0.807883	-0.113750	100.000000
1093.000000	0.820996	-0.114928	100.000000
1094.000000	0.834301	-0.114377	100.000000
1095.000000	0.847798	-0.119109	100.000000
1096.000000	0.861483	-0.130467	100.000000
1097.000000	0.875351	-0.121595	100.000000
1098.000000	0.889398	-0.121168	100.000000
1099.000000	0.903608	-0.132669	100.000000
1100.000000	0.917970	-0.104479	100.000000
1101.000000	0.932508	-0.121232	100.000000
1102.000000	0.947239	-0.129433	100.000000
1103.000000	0.962154	-0.116794	100.000000
1104.000000	0.977258	-0.107826	100.000000
1105.000000	0.992559	-0.122630	100.000000
1106.000000	1.008053	-0.122143	100.000000
1107.000000	1.023734	-0.118258	100.000000
1108.000000	1.039605	-0.109157	100.000000
1109.000000	1.055660	-0.105074	100.000000
1110.000000	1.071881	-0.123297	100.000000
1111.000000	1.088245	-0.107658	100.000000
1112.000000	1.104731	-0.103821	100.000000
1113.000000	1.121317	-0.115377	100.000000
1114.000000	1.137986	-0.118321	100.000000
1115.000000	1.154728	-0.129796	100.000000
1116.000000	1.171513	-0.109041	100.000000
1117.000000	1.188326	-0.113657	100.000000
1118.000000	1.205166	-0.107985	100.000000
1119.000000	1.222030	-0.099310	100.000000
1120.000000	1.238905	-0.112295	100.000000
1121.000000	1.255757	-0.096810	100.000000
1122.000000	1.272570	-0.101727	100.000000
1123.000000	1.289360	-0.104702	100.000000
1124.000000	1.306133	-0.095706	100.000000
1125.000000	1.322883	-0.096930	100.000000
1126.000000	1.339594	-0.095014	100.000000
1127.000000	1.356265	-0.092941	100.000000
1128.000000	1.372923	-0.082234	100.000000
1129.000000	1.389584	-0.083692	100.000000
1130.000000	1.406248	-0.086722	100.000000
1131.000000	1.422923	-0.084689	100.000000
1132.000000	1.439617	-0.094573	100.000000
1133.000000	1.456338	-0.092852	100.000000
1134.000000	1.473095	-0.070143	100.000000
1135.000000	1.489898	-0.069963	100.000000
1136.000000	1.506752	-0.064490	100.000000
1137.000000	1.523648	-0.059122	100.000000
1138.000000	1.540576	-0.067506	100.000000
1139.000000	1.557545	-0.061832	100.000000
1140.000000	1.574575	-0.059904	100.000000
1141.000000	1.591678	-0.067909	100.000000
1142.000000	1.608871	-0.093341	100.000000
1143.000000	1.626170	-0.079232	100.000000
1144.000000	1.643591	-0.078757	100.000000
1145.000000	1.661142	-0.075146	100.000000
1146.000000	1.678829	-0.057472	100.000000
1147.000000	1.696652	-0.067540	100.000000
1148.000000	1.714603	-0.065460	100.000000
1149.000000	1.732687	-0.060033	100.000000
1150.000000	1.750910	-0.085239	100.000000
1151.000000	1.769247	-0.048747	100.000000
1152.000000	1.787675	-0.051965	100.000000
1153.000000	1.806189	-0.056559	100.000000
1154.000000	1.824795	-0.057849	100.000000
1155.000000	1.843492	-0.059052	100.000000
1156.000000	1.862271	-0.058762	100.000000
1157.000000	1.881125	-0.049667	100.000000
1158.000000	1.900040	-0.030658	100.000000
1159.000000	1.919011	-0.040426	100.000000
1160.000000	1.938047	-0.046757	100.000000
1161.000000	1.957159	-0.030822	100.000000
1162.000000	1.976351	-0.038998	100.000000
1163.000000	1.995627	-0.035228	100.000000
1164.000000	2.015001	-0.032858	100.000000
1165.000000	2.034479	-0.037622	100.000000
1166.000000	2.054077	-0.023526	100.000000
1167.000000	2.073814	-0.010925	100.000000
1168.000000	2.093689	-0.012377	100.000000
1169.000000	2.113711	-0.032662	100.000000
1170.000000	2.133903	-0.015034	100.000000
1171.000000	2.154276	-0.033359	100.000000
1172.000000	2.174819	-0.016081	100.000000
1173.000000	2.195515	-0.005149	100.000000
1174.000000	2.216330	-0.003200	100.000000
1175.000000	2.237224	-0.009353	100.000000
1176.000000	2.258170	0.001181	100.000000
1177.000000	2.279150	-0.013498	100.000000
1178.000000	2.300151	0.003870	100.000000
1179.000000	2.321166	-0.000773	100.000000
1180.000000	2.342197	0.001237	100.000000
1181.000000	2.363253	0.002026	100.000000
1182.000000	2.384323	0.034683	100.000000
1183.000000	2.405414	0.025224	100.000000
1184.000000	2.426551	0.034217	100.000000
1185.000000	2.447741	0.021624	100.000000
1186.000000	2.468990	0.033621	100.000000
1187.000000	2.490315	0.044612	100.000000
1188.000000	2.511739	0.058778	100.000000
1189.000000	2.533265	0.081792	100.000000
1190.000000	2.554891	0.056529	100.000000
1191.000000	2.576630	0.077813	100.000000
1192.000000	2.598500	0.081633	100.000000
1193.000000	2.620513	0.091062	100.000000
1194.000000	2.642680	0.099967	100.000000
1195.000000	2.665009	0.095319	100.000000
1196.000000	2.687494	0.108050	100.000000
1197.000000	2.710119	0.111852	100.000000
1198.000000	2.732863	0.127843	100.000000
1199.000000	2.755701	0.124674	100.000000
1200.000000	2.778624	0.123758	100.000000
1201.000000	2.801624	0.110723	100.000000
1202.000000	2.824696	0.123043	100.000000
1203.000000	2.847826	0.128885	100.000000
1204.000000	2.870987	0.137684	100.000000
1205.000000	2.894153	0.139851	100.000000
1206.000000	2.917294	0.135648	100.000000
1207.000000	2.940392	0.134023	100.000000
1208.000000	2.963430	0.134594	100.000000
1209.000000	2.986394	0.147061	100.000000
1210.000000	3.009290	0.150909	100.000000
1211.000000	3.032121	0.141132	100.000000
1212.000000	3.054882	0.148667	100.000000
1213.000000	3.077567	0.137453	100.000000
1214.000000	3.100174	0.166677	100.000000
1215.000000	3.122705	0.160435	100.000000
1216.000000	3.145161	0.157548	100.000000
1217.000000	3.167547	0.156356	100.000000
1218.000000	3.189880	0.170586	100.000000
1219.000000	3.212166	0.160757	100.000000
1220.000000	3.234398	0.178558	100.000000
1221.000000	3.256583	0.182204	100.000000
1222.000000	3.278736	0.188134	100.000000
1223.000000	3.300886	0.193647	100.000000
1224.000000	3.323048	0.209855	100.000000
1225.000000	3.345207	0.213563	100.000000
1226.000000	3.367346	0.219364	100.000000
1227.000000	3.389467	0.216517	100.000000
1228.000000	3.411579	0.210215	100.000000
1229.000000	3.433694	0.224188	100.000000
1230.000000	3.455819	0.233536	100.000000
1231.000000	3.477947	0.239199	100.000000
1232.000000	3.500064	0.243267	100.000000
1233.000000	3.522163	0.242090	100.000000
1234.000000	3.544249	0.240904	100.000000
1235.000000	3.566319	0.241338	100.000000
1236.000000	3.588372	0.253828	100.000000
1237.000000	3.610399	0.264730	100.000000
1238.000000	3.632385	0.263357	100.000000
1239.000000	3.654312	0.270748	100.000000
1240.000000	3.676162	0.252452	100.000000
1241.000000	3.697906	0.258056	100.000000
1242.000000	3.719515	0.248414	100.000000
1243.000000	3.740983	0.279733	100.000000
1244.000000	3.762312	0.269831	100.000000
1245.000000	3.783508	0.276987	100.000000
1246.000000	3.804564	0.267154	100.000000
1247.000000	3.825466	0.279704	100.000000
1248.000000	3.846201	0.264619	100.000000
1249.000000	3.866751	0.273749	100.000000
1250.000000	3.887109	0.291301	100.000000
1251.000000	3.907279	0.283186	100.000000
1252.000000	3.927251	0.278413	100.000000
1253.000000	3.947011	0.287297	100.000000
1254.000000	3.966548	0.285972	100.000000
1255.000000	3.985858	0.305564	100.000000
1256.000000	4.004958	0.288485	100.000000
1257.000000	4.023864	0.309894	100.000000
1258.000000	4.042584	0.318461	100.000000
1259.000000	4.061119	0.324163	100.000000
1260.000000	4.079463	0.279839	100.000000
1261.000000	4.097617	0.319793	100.000000
1262.000000	4.115590	0.316719	100.000000
1263.000000	4.133384	0.308450	100.000000
1264.000000	4.150985	0.320687	100.000000
1265.000000	4.168379	0.319379	100.000000
1266.000000	4.185572	0.309355	100.000000
1267.000000	4.202566	0.328655	100.000000
1268.000000	4.219362	0.327189	100.000000
1269.000000	4.235962	0.331116	100.000000
1270.000000	4.252363	0.311046	100.000000
1271.000000	4.268566	0.323351	100.000000
1272.000000	4.284584	0.328705	100.000000
1273.000000	4.300426	0.308532	100.000000
1274.000000	4.316104	0.312443	100.000000
1275.000000	4.331612	0.326520	100.000000
1276.000000	4.346940	0.320142	100.000000
1277.000000	4.362093	0.309991	100.000000
1278.000000	4.377063	0.322429	100.000000
1279.000000	4.391839	0.293824	100.000000
1280.000000	4.406424	0.312605	100.000000
1281.000000	4.420803	0.299421	100.000000
1282.000000	4.434961	0.311681	100.000000
1283.000000	4.448900	0.286152	100.000000
1284.000000	4.462624	0.291608	100.000000
1285.000000	4.476120	0.288507	100.000000
1286.000000	4.489384	0.292440	100.000000
1287.000000	4.502419	0.282131	100.000000
1288.000000	4.515211	0.287640	100.000000
1289.000000	4.527761	0.293078	100.000000
1290.000000	4.540086	0.286480	100.000000
1291.000000	4.552197	0.290275	100.000000
1292.000000	4.564106	0.268086	100.000000
1293.000000	4.575829	0.275343	100.000000
1294.000000	4.587377	0.284250	100.000000
1295.000000	4.598744	0.270424	100.000000
1296.000000	4.609939	0.269209	100.000000
1297.000000	4.620972	0.274270	100.000000
1298.000000	4.631839	0.257759	100.000000
1299.000000	4.642545	0.267907	100.000000
1300.000000	4.653092	0.278646	100.000000
1301.000000	4.663483	0.266776	100.000000
1302.000000	4.673737	0.255099	100.000000
1303.000000	4.683862	0.265315	100.000000
1304.000000	4.693842	0.270667	100.000000
1305.000000	4.703662	0.265879	100.000000
1306.000000	4.713322	0.257344	100.000000
1307.000000	4.722833	0.260843	100.000000
1308.000000	4.732195	0.259653	100.000000
1309.000000	4.741409	0.268113	100.000000
1310.000000	4.750486	0.253059	100.000000
1311.000000	4.759431	0.258231	100.000000
1312.000000	4.768259	0.249825	100.000000
1313.000000	4.776966	0.255084	100.000000
1314.000000	4.785529	0.258815	100.000000
1315.000000	4.793943	0.264250	100.000000
1316.000000	4.802223	0.250495	100.000000
1317.000000	4.810369	0.248893	100.000000
1318.000000	4.818371	0.245528	100.000000
1319.000000	4.826223	0.249304	100.000000
1320.000000	4.833922	0.232107	100.000000
1321.000000	4.841475	0.251202	100.000000
1322.000000	4.848888	0.228999	100.000000
1323.000000	4.856146	0.247953	100.000000
1324.000000	4.863237	0.215569	100.000000
1325.000000	4.870169	0.227782	100.000000
1326.000000	4.876960	0.232828	100.000000
1327.000000	4.883610	0.230984	100.000000
1328.000000	4.890105	0.229735	100.000000
1329.000000	4.896433	0.233241	100.000000
1330.000000	4.902593	0.231616	100.000000
1331.000000	4.908600	0.209479	100.000000
1332.000000	4.914466	0.207621	100.000000
1333.000000	4.920180	0.204522	100.000000
1334.000000	4.925749	0.214701	100.000000
1335.000000	4.931208	0.202822	100.000000
1336.000000	4.936576	0.218497	100.000000
1337.000000	4.941853	0.203180	100.000000
1338.000000	4.947049	0.199697	100.000000
1339.000000	4.952188	0.201532	100.000000
1340.000000	4.957267	0.206707	100.000000
1341.000000	4.962290	0.194822	100.000000
1342.000000	4.967295	0.203401	100.000000
1343.000000	4.972292	0.196824	100.000000
1344.000000	4.977277	0.213948	100.000000
1345.000000	4.982254	0.184883	100.000000
1346.000000	4.987225	0.195375	100.000000
1347.000000	4.992189	0.203738	100.000000
1348.000000	4.997150	0.200900	100.000000
1349.000000	5.002104	0.202262	100.000000
1350.000000	5.007043	0.213003	100.000000
1351.000000	5.011964	0.200835	100.000000
1352.000000	5.016863	0.211602	100.000000
1353.000000	5.021728	0.199506	100.000000
1354.000000	5.026558	0.218455	100.000000
1355.000000	5.031365	0.194701	100.000000
1356.000000	5.036145	0.193067	100.000000
1357.000000	5.040877	0.193234	100.000000
1358.000000	5.045560	0.213953	100.000000
1359.000000	5.050210	0.191752	100.000000
1360.000000	5.054844	0.188677	100.000000
1361.000000	5.059460	0.188814	100.000000
1362.000000	5.064047	0.186993	100.000000
1363.000000	5.068602	0.193813	100.000000
1364.000000	5.073121	0.182205	100.000000
1365.000000	5.077602	0.192654	100.000000
1366.000000	5.082054	0.189391	100.000000
1367.000000	5.086503	0.189283	100.000000
1368.000000	5.090959	0.184394	100.000000
1369.000000	5.095417	0.186118	100.000000
1370.000000	5.099875	0.188051	100.000000
1371.000000	5.104323	0.203680	100.000000
1372.000000	5.108742	0.174620	100.000000
1373.000000	5.113112	0.209047	100.000000
1374.000000	5.117453	0.195465	100.000000
1375.000000	5.121787	0.202438	100.000000
1376.000000	5.126126	0.204343	100.000000
1377.000000	5.130472	0.199245	100.000000
1378.000000	5.134824	0.199608	100.000000
1379.000000	5.139196	0.201329	100.000000
1380.000000	5.143604	0.194436	100.000000
1381.000000	5.148054	0.216882	100.000000
1382.000000	5.152542	0.194878	100.000000
1383.000000	5.157063	0.211897	100.000000
1384.000000	5.161606	0.214039	100.000000
1385.000000	5.166171	0.212335	100.000000
1386.000000	5.170750	0.207151	100.000000
1387.000000	5.175337	0.209059	100.000000
1388.000000	5.179925	0.232976	100.000000
1389.000000	5.184522	0.226367	100.000000
1390.000000	5.189116	0.211200	100.000000
1391.000000	5.193691	0.221583	100.000000
1392.000000	5.198258	0.207880	100.000000
1393.000000	5.202829	0.212902	100.000000
1394.000000	5.207401	0.221832	100.000000
1395.000000	5.211974	0.218523	100.000000
1396.000000	5.216543	0.225601	100.000000
1397.000000	5.221071	0.230651	100.000000
1398.000000	5.225535	0.217119	100.000000
1399.000000	5.229945	0.220572	100.000000
1400.000000	5.234306	0.219126	100.000000
1401.000000	5.238619	0.225939	100.000000
1402.000000	5.242872	0.224154	100.000000
1403.000000	5.247050	0.213989	100.000000
1404.000000	5.251145	0.207277	100.000000
1405.000000	5.255143	0.200498	100.000000
1406.000000	5.259028	0.210622	100.000000
1407.000000	5.262787	0.210665	100.000000
1408.000000	5.266407	0.205710	100.000000
1409.000000	5.269896	0.200530	100.000000
1410.000000	5.273263	0.204084	100.000000
1411.000000	5.276507	0.207410	100.000000
1412.000000	5.279613	0.207319	100.000000
1413.000000	5.282586	0.199053	100.000000
1414.000000	5.285462	0.209321	100.000000
1415.000000	5.288257	0.204019	100.000000
1416.000000	5.290967	0.212511	100.000000
1417.000000	5.293590	0.185212	100.000000
1418.000000	5.296117	0.195650	100.000000
1419.000000	5.298546	0.193684	100.000000
1420.000000	5.300896	0.183172	100.000000
1421.000000	5.303180	0.178085	100.000000
1422.000000	5.305418	0.188415	100.000000
1423.000000	5.307622	0.188253	100.000000
1424.000000	5.309783	0.192069	100.000000
1425.000000	5.311904	0.190382	100.000000
1426.000000	5.314002	0.185099	100.000000
1427.000000	5.316078	0.182062	100.000000
1428.000000	5.318134	0.171540	100.000000
1429.000000	5.320173	0.173540	100.000000
1430.000000	5.322202	0.185397	100.000000
1431.000000	5.324223	0.161619	100.000000
1432.000000	5.326228	0.169991	100.000000
1433.000000	5.328220	0.163192	100.000000
1434.000000	5.330203	0.164931	100.000000
1435.000000	5.332181	0.178451	100.000000
1436.000000	5.334168	0.154747	100.000000
1437.000000	5.336175	0.163486	100.000000
1438.000000	5.338209	0.163494	100.000000
1439.000000	5.340267	0.154969	100.000000
1440.000000	5.342345	0.172007	100.000000
1441.000000	5.344433	0.182486	100.000000
1442.000000	5.346516	0.173914	100.000000
1443.000000	5.348594	0.163687	100.000000
1444.000000	5.350669	0.150085	100.000000
1445.000000	5.352744	0.157034	100.000000
1446.000000	5.354822	0.164184	100.000000
1447.000000	5.356892	0.157059	100.000000
1448.000000	5.358952	0.152187	100.000000
1449.000000	5.361013	0.155523	100.000000
1450.000000	5.363069	0.155446	100.000000
1451.000000	5.365114	0.134865	100.000000
1452.000000	5.367169	0.164236	100.000000
1453.000000	5.369249	0.153681	100.000000
1454.000000	5.371345	0.152459	100.000000
1455.000000	5.373437	0.142070	100.000000
1456.000000	5.375514	0.160965	100.000000
1457.000000	5.377574	0.147257	100.000000
1458.000000	5.379615	0.136999	100.000000
1459.000000	5.381631	0.133496	100.000000
1460.000000	5.383617	0.133728	100.000000
1461.000000	5.385577	0.138903	100.000000
1462.000000	5.387520	0.142290	100.000000
1463.000000	5.389457	0.130230	100.000000
1464.000000	5.391394	0.125259	100.000000
1465.000000	5.393322	0.133707	100.000000
1466.000000	5.395228	0.137241	100.000000
1467.000000	5.397114	0.119850	100.000000
1468.000000	5.398980	0.130241	100.000000
1469.000000	5.400811	0.116597	100.000000
1470.000000	5.402613	0.126971	100.000000
1471.000000	5.404388	0.120119	100.000000
1472.000000	5.406127	0.114841	100.000000
1473.000000	5.407835	0.125404	100.000000
1474.000000	5.409528	0.114744	100.000000
1475.000000	5.411221	0.106126	100.000000
1476.000000	5.412929	0.120126	100.000000
1477.000000	5.414664	0.109670	100.000000
1478.000000	5.416417	0.108269	100.000000
1479.000000	5.418167	0.116795	100.000000
1480.000000	5.419912	0.121684	100.000000
1481.000000	5.421653	0.113299	100.000000
1482.000000	5.423391	0.123751	100.000000
1483.000000	5.425128	0.111869	100.000000
1484.000000	5.426854	0.089659	100.000000
1485.000000	5.428559	0.096537	100.000000
1486.000000	5.430241	0.098249	100.000000
1487.000000	5.431905	0.100042	100.000000
1488.000000	5.433545	0.107043	100.000000
1489.000000	5.435146	0.105090	100.000000
1490.000000	5.436704	0.069137	100.000000
1491.000000	5.438219	0.086221	100.000000
1492.000000	5.439697	0.100180	100.000000
1493.000000	5.441138	0.089866	100.000000
1494.000000	5.442545	0.086259	100.000000
1495.000000	5.443934	0.094820	100.000000
1496.000000	5.445317	0.100045	100.000000
1497.000000	5.446698	0.091540	100.000000
1498.000000	5.448081	0.086631	100.000000
1499.000000	5.449473	0.082951	100.000000
1500.000000	5.450887	0.091516	100.000000
1501.000000	5.452345	0.076143	100.000000
1502.000000	5.453855	0.086284	100.000000
1503.000000	5.455411	0.081298	100.000000
1504.000000	5.457001	0.069384	100.000000
1505.000000	5.458613	0.081174	100.000000
1506.000000	5.460230	0.086380	100.000000
1507.000000	5.461849	0.088289	100.000000
1508.000000	5.463473	0.071037	100.000000
1509.000000	5.465103	0.083158	100.000000
1510.000000	5.466747	0.078131	100.000000
1511.000000	5.468422	0.085023	100.000000
1512.000000	5.470138	0.086572	100.000000
1513.000000	5.471901	0.086706	100.000000
1514.000000	5.473716	0.083235	100.000000
1515.000000	5.475574	0.081773	100.000000
1516.000000	5.477462	0.093444	100.000000
1517.000000	5.479382	0.071519	100.000000
1518.000000	5.481332	0.078443	100.000000
1519.000000	5.483300	0.080225	100.000000
1520.000000	5.485291	0.080133	100.000000
1521.000000	5.487302	0.061500	100.000000
1522.000000	5.489312	0.090377	100.000000
1523.000000	5.491317	0.073390	100.000000
1524.000000	5.493318	0.068470	100.000000
1525.000000	5.495313	0.068512	100.000000
1526.000000	5.497301	0.070102	100.000000
1527.000000	5.499270	0.072003	100.000000
1528.000000	5.501206	0.072177	100.000000
1529.000000	5.503108	0.075122	100.000000
1530.000000	5.504984	0.059948	100.000000
1531.000000	5.506835	0.048220	100.000000
1532.000000	5.508654	0.056976	100.000000
1533.000000	5.510446	0.067053	100.000000
1534.000000	5.512230	0.072442	100.000000
1535.000000	5.514007	0.060134	100.000000
1536.000000	5.515761	0.055287	100.000000
1537.000000	5.517482	0.043382	100.000000
1538.000000	5.519162	0.058716	100.000000
1539.000000	5.520785	0.045082	100.000000
1540.000000	5.522338	0.041707	100.000000
1541.000000	5.523822	0.033064	100.000000
1542.000000	5.525236	0.048413	100.000000
1543.000000	5.526578	0.022988	100.000000
1544.000000	5.527844	0.022861	100.000000
1545.000000	5.529029	0.019570	100.000000
1546.000000	5.530114	0.031655	100.000000
1547.000000	5.531096	0.027974	100.000000
1548.000000	5.531988	0.010948	100.000000
1549.000000	5.532802	0.026366	100.000000
1550.000000	5.533548	-0.006096	100.000000
1551.000000	5.534238	0.022618	100.000000
1552.000000	5.534894	0.009271	100.000000
1553.000000	5.535520	0.002246	100.000000
1554.000000	5.536099	0.003969	100.000000
1555.000000	5.536645	0.009038	100.000000
1556.000000	5.537194	0.010959	100.000000
1557.000000	5.537766	0.000707	100.000000
1558.000000	5.538366	0.012626	100.000000
1559.000000	5.538975	0.007343	100.000000
1560.000000	5.539582	0.004130	100.000000
1561.000000	5.540187	-0.004387	100.000000
1562.000000	5.540785	-0.014847	100.000000
1563.000000	5.541369	0.004133	100.000000
1564.000000	5.541931	-0.023337	100.000000
1565.000000	5.542461	-0.018327	100.000000
1566.000000	5.542959	-0.014864	100.000000
1567.000000	5.543425	-0.019867	100.000000
1568.000000	5.543862	-0.021591	100.000000
1569.000000	5.544271	-0.025007	100.000000
1570.000000	5.544650	-0.013097	100.000000
1571.000000	5.544985	-0.035062	100.000000
1572.000000	5.545256	-0.038694	100.000000
1573.000000	5.545454	-0.042223	100.000000
1574.000000	5.545577	-0.040493	100.000000
1575.000000	5.545626	-0.061144	100.000000
1576.000000	5.545601	-0.052493	100.000000
1577.000000	5.545494	-0.054367	100.000000
1578.000000	5.545307	-0.040700	100.000000
1579.000000	5.545048	-0.071577	100.000000
1580.000000	5.544710	-0.068124	100.000000
1581.000000	5.544285	-0.071796	100.000000
1582.000000	5.543774	-0.069891	100.000000
1583.000000	5.543171	-0.095504	100.000000
1584.000000	5.542484	-0.095611	100.000000
1585.000000	5.541716	-0.085448	100.000000
1586.000000	5.540865	-0.092329	100.000000
1587.000000	5.539946	-0.114775	100.000000
1588.000000	5.538955	-0.104743	100.000000
1589.000000	5.537876	-0.113114	100.000000
1590.000000	5.536699	-0.099344	100.000000
1591.000000	5.535429	-0.106347	100.000000
1592.000000	5.534080	-0.115150	100.000000
1593.000000	5.532657	-0.126965	100.000000
1594.000000	5.531166	-0.110140	100.000000
1595.000000	5.529606	-0.145948	100.000000
1596.000000	5.527979	-0.134360	100.000000
1597.000000	5.526289	-0.128998	100.000000
1598.000000	5.524534	-0.110579	100.000000
1599.000000	5.522732	-0.147751	100.000000
1600.000000	5.520907	-0.148192	100.000000
1601.000000	5.519058	-0.149716	100.000000
1602.000000	5.517174	-0.149789	100.000000
1603.000000	5.515249	-0.149850	100.000000
1604.000000	5.513271	-0.148352	100.000000
1605.000000	5.511232	-0.187952	100.000000
1606.000000	5.509136	-0.168996	100.000000
1607.000000	5.506986	-0.182823	100.000000
1608.000000	5.504783	-0.170661	100.000000
1609.000000	5.502527	-0.190041	100.000000
1610.000000	5.500221	-0.183003	100.000000
1611.000000	5.497876	-0.184763	100.000000
1612.000000	5.495489	-0.196758	100.000000
1613.000000	5.493048	-0.208846	100.000000
1614.000000	5.490566	-0.191559	100.000000
1615.000000	5.488066	-0.209127	100.000000
1616.000000	5.485562	-0.203919	100.000000
1617.000000	5.483051	-0.212269	100.000000
1618.000000	5.480524	-0.221132	100.000000
1619.000000	5.477978	-0.229803	100.000000
1620.000000	5.475409	-0.214345	100.000000
1621.000000	5.472810	-0.212795	100.000000
1622.000000	5.470172	-0.228336	100.000000
1623.000000	5.467492	-0.252267	100.000000
1624.000000	5.464761	-0.228480	100.000000
1625.000000	5.461971	-0.233563	100.000000
1626.000000	5.459119	-0.261205	100.000000
1627.000000	5.456202	-0.250804	100.000000
1628.000000	5.453202	-0.268247	100.000000
1629.000000	5.450106	-0.254707	100.000000
1630.000000	5.446920	-0.268506	100.000000
1631.000000	5.443646	-0.265317	100.000000
1632.000000	5.440280	-0.279218	100.000000
1633.000000	5.436833	-0.281279	100.000000
1634.000000	5.433312	-0.289670	100.000000
1635.000000	5.429720	-0.286511	100.000000
1636.000000	5.426065	-0.295106	100.000000
1637.000000	5.422360	-0.284999	100.000000
1638.000000	5.418606	-0.290167	100.000000
1639.000000	5.414789	-0.283758	100.000000
1640.000000	5.410885	-0.295492	100.000000
1641.000000	5.406895	-0.307928	100.000000
1642.000000	5.402842	-0.295958	100.000000
1643.000000	5.398745	-0.313410	100.000000
1644.000000	5.394610	-0.308517	100.000000
1645.000000	5.390433	-0.311978	100.000000
1646.000000	5.386206	-0.322560	100.000000
1647.000000	5.381932	-0.306791	100.000000
1648.000000	5.377603	-0.319257	100.000000
1649.000000	5.373228	-0.321297	100.000000
1650.000000	5.368821	-0.317662	100.000000
1651.000000	5.364391	-0.330217	100.000000
1652.000000	5.359943	-0.325128	100.000000
1653.000000	5.355475	-0.320322	100.000000
1654.000000	5.350981	-0.349628	100.000000
1655.000000	5.346452	-0.344422	100.000000
1656.000000	5.341885	-0.344466	100.000000
1657.000000	5.337284	-0.354913	100.000000
1658.000000	5.332655	-0.348452	100.000000
1659.000000	5.327992	-0.370806	100.000000
1660.000000	5.323287	-0.361059	100.000000
1661.000000	5.318536	-0.348811	100.000000
1662.000000	5.313736	-0.355929	100.000000
1663.000000	5.308887	-0.388545	100.000000
1664.000000	5.303976	-0.380351	100.000000
1665.000000	5.298990	-0.394097	100.000000
1666.000000	5.293923	-0.378769	100.000000
1667.000000	5.288767	-0.408135	100.000000
1668.000000	5.283520	-0.406493	100.000000
1669.000000	5.278177	-0.411719	100.000000
1670.000000	5.272732	-0.396869	100.000000
1671.000000	5.267192	-0.422787	100.000000
1672.000000	5.261570	-0.424606	100.000000
1673.000000	5.255873	-0.435092	100.000000
1674.000000	5.250115	-0.418132	100.000000
1675.000000	5.244295	-0.433636	100.000000
1676.000000	5.238406	-0.444084	100.000000
1677.000000	5.232465	-0.442802	100.000000
1678.000000	5.226476	-0.449841	100.000000
1679.000000	5.220407	-0.461691	100.000000
1680.000000	5.214250	-0.470747	100.000000
1681.000000	5.208026	-0.457094	100.000000
1682.000000	5.201743	-0.472754	100.000000
1683.000000	5.195392	-0.486501	100.000000
1684.000000	5.188960	-0.490355	100.000000
1685.000000	5.182443	-0.499284	100.000000
1686.000000	5.175833	-0.492502	100.000000
1687.000000	5.169129	-0.492513	100.000000
1688.000000	5.162362	-0.499752	100.000000
1689.000000	5.155557	-0.513630	100.000000
1690.000000	5.148727	-0.525860	100.000000
1691.000000	5.141869	-0.515519	100.000000
1692.000000	5.134978	-0.539719	100.000000
1693.000000	5.128074	-0.536368	100.000000
1694.000000	5.121170	-0.541785	100.000000
1695.000000	5.114261	-0.547149	100.000000
1696.000000	5.107348	-0.550568	100.000000
1697.000000	5.100449	-0.561242	100.000000
1698.000000	5.093574	-0.561148	100.000000
1699.000000	5.086730	-0.583763	100.000000
1700.000000	5.079926	-0.580204	100.000000
1701.000000	5.073151	-0.592536	100.000000
1702.000000	5.066418	-0.589156	100.000000
1703.000000	5.059753	-0.584223	100.000000
1704.000000	5.053181	-0.598066	100.000000
1705.000000	5.046716	-0.586277	100.000000
1706.000000	5.040357	-0.591310	100.000000
1707.000000	5.034106	-0.605159	100.000000
1708.000000	5.027969	-0.610380	100.000000
1709.000000	5.021962	-0.596570	100.000000
1710.000000	5.016106	-0.620633	100.000000
1711.000000	5.010425	-0.590034	100.000000
1712.000000	5.004935	-0.598691	100.000000
1713.000000	4.999637	-0.609023	100.000000
1714.000000	4.994541	-0.619606	100.000000
1715.000000	4.989669	-0.583463	100.000000
1716.000000	4.985028	-0.611055	100.000000
1717.000000	4.980626	-0.601058	100.000000
1718.000000	4.976478	-0.604340	100.000000
1719.000000	4.972577	-0.597709	100.000000
1720.000000	4.968914	-0.619792	100.000000
1721.000000	4.965483	-0.593885	100.000000
1722.000000	4.962286	-0.623340	100.000000
1723.000000	4.959326	-0.602836	100.000000
1724.000000	4.956590	-0.604558	100.000000
1725.000000	4.954062	-0.606345	100.000000
1726.000000	4.951730	-0.601073	100.000000
1727.000000	4.949578	-0.609721	100.000000
1728.000000	4.947590	-0.591151	100.000000
1729.000000	4.945759	-0.597705	100.000000
1730.000000	4.944081	-0.615153	100.000000
1731.000000	4.942567	-0.604552	100.000000
1732.000000	4.941224	-0.594469	100.000000
1733.000000	4.940041	-0.602898	100.000000
1734.000000	4.939003	-0.606296	100.000000
1735.000000	4.938099	-0.606318	100.000000
1736.000000	4.937334	-0.609810	100.000000
1737.000000	4.936696	-0.616601	100.000000
1738.000000	4.936159	-0.597899	100.000000
1739.000000	4.935722	-0.618398	100.000000
1740.000000	4.935385	-0.613390	100.000000
1741.000000	4.935123	-0.624139	100.000000
1742.000000	4.934907	-0.608272	100.000000
1743.000000	4.934708	-0.610206	100.000000
1744.000000	4.934520	-0.624023	100.000000
1745.000000	4.934348	-0.617157	100.000000
1746.000000	4.934185	-0.625651	100.000000
1747.000000	4.934036	-0.620529	100.000000
1748.000000	4.933913	-0.622251	100.000000
1749.000000	4.933820	-0.605099	100.000000
1750.000000	4.933755	-0.603424	100.000000
1751.000000	4.933714	-0.622340	100.000000
1752.000000	4.933690	-0.603642	100.000000
1753.000000	4.933691	-0.615461	100.000000
1754.000000	4.933728	-0.608799	100.000000
1755.000000	4.933804	-0.612011	100.000000
1756.000000	4.933909	-0.625787	100.000000
1757.000000	4.934042	-0.610369	100.000000
1758.000000	4.934205	-0.624141	100.000000
1759.000000	4.934413	-0.620679	100.000000
1760.000000	4.934680	-0.617476	100.000000
1761.000000	4.935006	-0.629266	100.000000
1762.000000	4.935387	-0.615672	100.000000
1763.000000	4.935812	-0.631045	100.000000
1764.000000	4.936266	-0.624324	100.000000
1765.000000	4.936739	-0.634695	100.000000
1766.000000	4.937231	-0.619278	100.000000
1767.000000	4.937745	-0.629507	100.000000
1768.000000	4.938279	-0.622819	100.000000
1769.000000	4.938840	-0.626198	100.000000
1770.000000	4.939434	-0.631433	100.000000
1771.000000	4.940063	-0.631191	100.000000
1772.000000	4.940720	-0.619398	100.000000
1773.000000	4.941396	-0.629710	100.000000
1774.000000	4.942091	-0.627758	100.000000
1775.000000	4.942798	-0.644809	100.000000
1776.000000	4.943527	-0.617595	100.000000
1777.000000	4.944279	-0.641460	100.000000
1778.000000	4.945045	-0.626156	100.000000
1779.000000	4.945840	-0.627861	100.000000
1780.000000	4.946676	-0.624573	100.000000
1781.000000	4.947539	-0.629486	100.000000
1782.000000	4.948420	-0.633077	100.000000
1783.000000	4.949324	-0.627634	100.000000
1784.000000	4.950247	-0.614094	100.000000
1785.000000	4.951190	-0.626067	100.000000
1786.000000	4.952145	-0.624458	100.000000
1787.000000	4.953109	-0.615788	100.000000
1788.000000	4.954082	-0.627789	100.000000
1789.000000	4.955056	-0.626111	100.000000
1790.000000	4.956022	-0.624297	100.000000
1791.000000	4.956977	-0.650345	100.000000
1792.000000	4.957922	-0.613673	100.000000
1793.000000	4.958851	-0.646627	100.000000
1794.000000	4.959768	-0.625770	100.000000
1795.000000	4.960682	-0.648092	100.000000
1796.000000	4.961589	-0.625752	100.000000
1797.000000	4.962499	-0.627719	100.000000
1798.000000	4.963425	-0.629223	100.000000
1799.000000	4.964375	-0.642957	100.000000
1800.000000	4.965358	-0.632619	100.000000
1801.000000	4.966372	-0.618899	100.000000
1802.000000	4.967418	-0.621990	100.000000
1803.000000	4.968503	-0.627355	100.000000
1804.000000	4.969632	-0.623794	100.000000
1805.000000	4.970827	-0.635540	100.000000
1806.000000	4.972105	-0.616863	100.000000
1807.000000	4.973474	-0.627182	100.000000
1808.000000	4.974949	-0.613347	100.000000
1809.000000	4.976543	-0.604748	100.000000
1810.000000	4.978242	-0.604683	100.000000
1811.000000	4.980037	-0.586056	100.000000
1812.000000	4.981939	-0.609711	100.000000
1813.000000	4.983941	-0.599513	100.000000
1814.000000	4.986029	-0.599375	100.000000
1815.000000	4.988198	-0.597754	100.000000
1816.000000	4.990451	-0.594235	100.000000
1817.000000	4.992786	-0.580569	100.000000
1818.000000	4.995206	-0.573694	100.000000
1819.000000	4.997720	-0.593995	100.000000
1820.000000	5.000324	-0.583543	100.000000
1821.000000	5.003022	-0.566479	100.000000
1822.000000	5.005809	-0.561105	100.000000
1823.000000	5.008672	-0.562916	100.000000
1824.000000	5.011605	-0.573129	100.000000
1825.000000	5.014593	-0.571116	100.000000
1826.000000	5.017624	-0.564532	100.000000
1827.000000	5.020693	-0.584909	100.000000
1828.000000	5.023796	-0.579713	100.000000
1829.000000	5.026924	-0.577896	100.000000
1830.000000	5.030049	-0.571082	100.000000
1831.000000	5.033162	-0.564172	100.000000
1832.000000	5.036277	-0.584595	100.000000
1833.000000	5.039400	-0.536523	100.000000
1834.000000	5.042517	-0.564053	100.000000
1835.000000	5.045607	-0.567230	100.000000
1836.000000	5.048656	-0.544810	100.000000
1837.000000	5.051666	-0.553529	100.000000
1838.000000	5.054644	-0.563675	100.000000
1839.000000	5.057573	-0.554808	100.000000
1840.000000	5.060459	-0.549641	100.000000
1841.000000	5.063313	-0.551493	100.000000
1842.000000	5.066125	-0.551444	100.000000
1843.000000	5.068899	-0.556414	100.000000
1844.000000	5.071647	-0.559662	100.000000
1845.000000	5.074375	-0.544246	100.000000
1846.000000	5.077094	-0.544370	100.000000
1847.000000	5.079809	-0.527321	100.000000
1848.000000	5.082523	-0.540754	100.000000
1849.000000	5.085231	-0.547375	100.000000
1850.000000	5.087922	-0.538993	100.000000
1851.000000	5.090579	-0.542297	100.000000
1852.000000	5.093196	-0.542300	100.000000
1853.000000	5.095779	-0.559676	100.000000
1854.000000	5.098323	-0.532238	100.000000
1855.000000	5.100824	-0.538798	100.000000
1856.000000	5.103293	-0.538801	100.000000
1857.000000	5.105730	-0.526539	100.000000
1858.000000	5.108144	-0.531843	100.000000
1859.000000	5.110562	-0.548869	100.000000
1860.000000	5.112982	-0.530146	100.000000
1861.000000	5.115390	-0.523065	100.000000
1862.000000	5.117786	-0.519899	100.000000
1863.000000	5.120171	-0.531613	100.000000
1864.000000	5.122539	-0.514476	100.000000
1865.000000	5.124893	-0.507694	100.000000
1866.000000	5.127231	-0.526337	100.000000
1867.000000	5.129547	-0.512624	100.000000
1868.000000	5.131849	-0.519587	100.000000
1869.000000	5.134151	-0.516071	100.000000
1870.000000	5.136464	-0.515877	100.000000
1871.000000	5.138784	-0.519305	100.000000
1872.000000	5.141099	-0.514028	100.000000
1873.000000	5.143393	-0.526006	100.000000
1874.000000	5.145651	-0.525932	100.000000
1875.000000	5.147873	-0.519210	100.000000
1876.000000	5.150062	-0.505200	100.000000
1877.000000	5.152207	-0.537826	100.000000
1878.000000	5.154297	-0.506904	100.000000
1879.000000	5.156330	-0.508645	100.000000
1880.000000	5.158308	-0.515530	100.000000
1881.000000	5.160230	-0.506903	100.000000
1882.000000	5.162113	-0.498541	100.000000
1883.000000	5.163961	-0.502021	100.000000
1884.000000	5.165750	-0.505220	100.000000
1885.000000	5.167470	-0.518996	100.000000
1886.000000	5.169122	-0.519068	100.000000
1887.000000	5.170703	-0.517251	100.000000
1888.000000	5.172209	-0.520700	100.000000
1889.000000	5.173642	-0.507056	100.000000
1890.000000	5.175009	-0.510202	100.000000
1891.000000	5.176321	-0.503511	100.000000
1892.000000	5.177595	-0.496585	100.000000
1893.000000	5.178840	-0.520743	100.000000
1894.000000	5.180046	-0.498287	100.000000
1895.000000	5.181215	-0.507019	100.000000
1896.000000	5.182361	-0.498190	100.000000
1897.000000	5.183483	-0.501894	100.000000
1898.000000	5.184573	-0.508648	100.000000
1899.000000	5.185616	-0.518820	100.000000
1900.000000	5.186611	-0.505173	100.000000
1901.000000	5.187563	-0.508678	100.000000
1902.000000	5.188475	-0.494852	100.000000
1903.000000	5.189362	-0.504975	100.000000
1904.000000	5.190236	-0.523932	100.000000
1905.000000	5.191081	-0.503216	100.000000
1906.000000	5.191885	-0.510283	100.000000
1907.000000	5.192654	-0.513745	100.000000
1908.000000	5.193379	-0.513612	100.000000
1909.000000	5.194046	-0.506727	100.000000
1910.000000	5.194670	-0.511916	100.000000
1911.000000	5.195270	-0.515137	100.000000
1912.000000	5.195842	-0.508431	100.000000
1913.000000	5.196369	-0.509847	100.000000
1914.000000	5.196844	-0.496250	100.000000
1915.000000	5.197274	-0.501382	100.000000
1916.000000	5.197665	-0.508315	100.000000
1917.000000	5.198016	-0.509909	100.000000
1918.000000	5.198331	-0.516596	100.000000
1919.000000	5.198604	-0.516591	100.000000
1920.000000	5.198823	-0.513305	100.000000
1921.000000	5.198990	-0.520238	100.000000
1922.000000	5.199112	-0.513369	100.000000
1923.000000	5.199189	-0.511656	100.000000
1924.000000	5.199226	-0.511659	100.000000
1925.000000	5.199235	-0.503085	100.000000
1926.000000	5.199213	-0.520243	100.000000
1927.000000	5.199149	-0.515224	100.000000
1928.000000	5.199052	-0.520343	100.000000
1929.000000	5.198929	-0.508139	100.000000
1930.000000	5.198778	-0.520313	100.000000
1931.000000	5.198596	-0.528770	100.000000
1932.000000	5.198389	-0.518498	100.000000
1933.000000	5.198160	-0.542439	100.000000
1934.000000	5.197919	-0.518559	100.000000
1935.000000	5.197677	-0.508310	100.000000
1936.000000	5.197425	-0.520264	100.000000
1937.000000	5.197153	-0.516843	100.000000
1938.000000	5.196874	-0.523540	100.000000
1939.000000	5.196592	-0.521973	100.000000
1940.000000	5.196310	-0.532457	100.000000
1941.000000	5.196036	-0.528869	100.000000
1942.000000	5.195773	-0.520399	100.000000
1943.000000	5.195508	-0.527011	100.000000
1944.000000	5.195221	-0.537513	100.000000
1945.000000	5.194913	-0.521973	100.000000
1946.000000	5.194596	-0.520380	100.000000
1947.000000	5.194272	-0.533798	100.000000
1948.000000	5.193933	-0.518588	100.000000
1949.000000	5.193583	-0.535692	100.000000
1950.000000	5.193226	-0.528779	100.000000
1951.000000	5.192858	-0.537366	100.000000
1952.000000	5.192477	-0.527129	100.000000
1953.000000	5.192081	-0.549357	100.000000
1954.000000	5.191662	-0.532096	100.000000
1955.000000	5.191221	-0.539345	100.000000
1956.000000	5.190763	-0.552540	100.000000
1957.000000	5.190286	-0.535919	100.000000
1958.000000	5.189774	-0.544146	100.000000
1959.000000	5.189223	-0.539600	100.000000
1960.000000	5.188630	-0.547821	100.000000
1961.000000	5.187979	-0.542616	100.000000
1962.000000	5.187264	-0.561705	100.000000
1963.000000	5.186490	-0.547957	100.000000
1964.000000	5.185658	-0.549578	100.000000
1965.000000	5.184750	-0.566824	100.000000
1966.000000	5.183753	-0.551372	100.000000
1967.000000	5.182674	-0.555007	100.000000
1968.000000	5.181526	-0.556545	100.000000
1969.000000	5.180314	-0.549845	100.000000
1970.000000	5.179035	-0.551573	100.000000
1971.000000	5.177694	-0.565364	100.000000
1972.000000	5.176302	-0.568842	100.000000
1973.000000	5.174870	-0.570426	100.000000
1974.000000	5.173405	-0.561951	100.000000
1975.000000	5.171905	-0.570639	100.000000
1976.000000	5.170375	-0.577528	100.000000
1977.000000	5.168825	-0.560654	100.000000
1978.000000	5.167265	-0.551662	100.000000
1979.000000	5.165728	-0.563837	100.000000
1980.000000	5.164231	-0.560875	100.000000
1981.000000	5.162753	-0.548145	100.000000
1982.000000	5.161295	-0.553504	100.000000
1983.000000	5.159860	-0.563751	100.000000
1984.000000	5.158454	-0.563916	100.000000
1985.000000	5.157088	-0.556969	100.000000
1986.000000	5.155763	-0.572508	100.000000
1987.000000	5.154482	-0.572583	100.000000
1988.000000	5.153248	-0.564130	100.000000
1989.000000	5.152065	-0.553795	100.000000
1990.000000	5.150931	-0.561994	100.000000
1991.000000	5.149840	-0.555543	100.000000
1992.000000	5.148804	-0.567335	100.000000
1993.000000	5.147837	-0.550520	100.000000
1994.000000	5.146946	-0.555423	100.000000
1995.000000	5.146123	-0.543871	100.000000
1996.000000	5.145357	-0.553964	100.000000
1997.000000	5.144650	-0.559220	100.000000
1998.000000	5.144004	-0.540170	100.000000
1999.000000	5.143410	-0.554070	100.000000
2000.000000	5.142867	-0.547342	100.000000
2001.000000	5.142372	-0.542298	100.000000
2002.000000	5.141908	-0.553960	100.000000
2003.000000	5.141469	-0.531819	100.000000
2004.000000	5.141058	-0.538563	100.000000
2005.000000	5.140676	-0.543676	100.000000
2006.000000	5.140314	-0.543991	100.000000
2007.000000	5.139948	-0.540475	100.000000
2008.000000	5.139566	-0.542237	100.000000
2009.000000	5.139187	-0.530249	100.000000
2010.000000	5.138838	-0.543999	100.000000
2011.000000	5.138526	-0.533632	100.000000
2012.000000	5.138248	-0.535536	100.000000
2013.000000	5.137999	-0.538778	100.000000
2014.000000	5.137769	-0.542101	100.000000
2015.000000	5.137548	-0.535356	100.000000
2016.000000	5.137317	-0.540499	100.000000
2017.000000	5.137060	-0.549298	100.000000
2018.000000	5.136796	-0.533669	100.000000
2019.000000	5.136548	-0.524936	100.000000
2020.000000	5.136309	-0.543961	100.000000
2021.000000	5.136065	-0.547415	100.000000
2022.000000	5.135811	-0.542355	100.000000
2023.000000	5.135564	-0.544001	100.000000
2024.000000	5.135331	-0.538901	100.000000
2025.000000	5.135098	-0.540654	100.000000
2026.000000	5.134863	-0.533783	100.000000
2027.000000	5.134640	-0.547490	100.000000
2028.000000	5.134429	-0.540456	100.000000
2029.000000	5.134224	-0.545656	100.000000
2030.000000	5.134022	-0.552828	100.000000
2031.000000	5.133823	-0.552672	100.000000
2032.000000	5.133631	-0.532235	100.000000
2033.000000	5.133445	-0.539130	100.000000
2034.000000	5.133259	-0.539032	100.000000
2035.000000	5.133074	-0.533628	100.000000
2036.000000	5.132893	-0.534140	100.000000
2037.000000	5.132722	-0.552780	100.000000
2038.000000	5.132562	-0.537597	100.000000
2039.000000	5.132434	-0.551017	100.000000
2040.000000	5.132353	-0.554439	100.000000
2041.000000	5.132316	-0.542336	100.000000
2042.000000	5.132336	-0.550935	100.000000
2043.000000	5.132430	-0.540748	100.000000
2044.000000	5.132602	-0.544356	100.000000
2045.000000	5.132841	-0.542371	100.000000
2046.000000	5.133122	-0.527120	100.000000
2047.000000	5.133458	-0.533905	100.000000
2048.000000	5.133880	-0.516641	100.000000
2049.000000	5.134412	-0.530292	100.000000
2050.000000	5.135066	-0.533529	100.000000
2051.000000	5.135841	-0.519763	100.000000
2052.000000	5.136730	-0.524866	100.000000
2053.000000	5.137725	-0.523177	100.000000
2054.000000	5.138824	-0.501009	100.000000
2055.000000	5.140054	-0.516215	100.000000
2056.000000	5.141428	-0.521422	100.000000
2057.000000	5.142925	-0.529900	100.000000
2058.000000	5.144518	-0.514685	100.000000
2059.000000	5.146190	-0.511141	100.000000
2060.000000	5.147933	-0.498917	100.000000
2061.000000	5.149732	-0.502410	100.000000
2062.000000	5.151579	-0.497144	100.000000
2063.000000	5.153471	-0.503970	100.000000
2064.000000	5.155403	-0.497146	100.000000
2065.000000	5.157360	-0.484912	100.000000
2066.000000	5.159326	-0.493591	100.000000
2067.000000	5.161298	-0.491909	100.000000
2068.000000	5.163287	-0.483318	100.000000
2069.000000	5.165308	-0.485144	100.000000
2070.000000	5.167369	-0.503990	100.000000
2071.000000	5.169463	-0.490203	100.000000
2072.000000	5.171575	-0.481522	100.000000
2073.000000	5.173709	-0.484912	100.000000
2074.000000	5.175869	-0.495262	100.000000
2075.000000	5.178051	-0.471502	100.000000
2076.000000	5.180243	-0.472933	100.000000
2077.000000	5.182431	-0.478211	100.000000
2078.000000	5.184611	-0.478231	100.000000
2079.000000	5.186785	-0.449115	100.000000
2080.000000	5.188951	-0.453967	100.000000
2081.000000	5.191084	-0.462669	100.000000
2082.000000	5.193162	-0.440308	100.000000
2083.000000	5.195212	-0.464581	100.000000
2084.000000	5.197267	-0.447140	100.000000
2085.000000	5.199303	-0.462630	100.000000
2086.000000	5.201296	-0.459085	100.000000
2087.000000	5.203280	-0.438748	100.000000
2088.000000	5.205292	-0.452385	100.000000
2089.000000	5.207326	-0.435468	100.000000
2090.000000	5.209387	-0.433502	100.000000
2091.000000	5.211486	-0.421433	100.000000
2092.000000	5.213639	-0.428256	100.000000
2093.000000	5.215860	-0.433361	100.000000
2094.000000	5.218134	-0.422889	100.000000
2095.000000	5.220456	-0.412866	100.000000
2096.000000	5.222828	-0.417573	100.000000
2097.000000	5.225250	-0.400572	100.000000
2098.000000	5.227726	-0.412538	100.000000
2099.000000	5.230256	-0.400454	100.000000
2100.000000	5.232847	-0.397132	100.000000
2101.000000	5.235515	-0.393569	100.000000
2102.000000	5.238265	-0.396954	100.000000
2103.000000	5.241100	-0.401898	100.000000
2104.000000	5.244023	-0.377895	100.000000
2105.000000	5.247035	-0.368970	100.000000
2106.000000	5.250133	-0.386368	100.000000
2107.000000	5.253303	-0.373995	100.000000
2108.000000	5.256540	-0.370478	100.000000
2109.000000	5.259846	-0.366927	100.000000
2110.000000	5.263216	-0.358604	100.000000
2111.000000	5.266656	-0.349604	100.000000
2112.000000	5.270185	-0.358556	100.000000
2113.000000	5.273807	-0.349346	100.000000
2114.000000	5.277512	-0.358047	100.000000
2115.000000	5.281295	-0.344313	100.000000
2116.000000	5.285156	-0.347423	100.000000
2117.000000	5.289075	-0.346175	100.000000
2118.000000	5.293039	-0.339167	100.000000
2119.000000	5.297043	-0.325375	100.000000
2120.000000	5.301079	-0.301276	100.000000
2121.000000	5.305137	-0.314778	100.000000
2122.000000	5.309212	-0.321718	100.000000
2123.000000	5.313304	-0.285793	100.000000
2124.000000	5.317414	-0.301087	100.000000
2125.000000	5.321539	-0.287359	100.000000
2126.000000	5.325676	-0.297530	100.000000
2127.000000	5.329838	-0.294155	100.000000
2128.000000	5.334036	-0.273594	100.000000
2129.000000	5.338260	-0.285113	100.000000
2130.000000	5.342511	-0.266495	100.000000
2131.000000	5.346797	-0.274713	100.000000
2132.000000	5.351112	-0.262697	100.000000
2133.000000	5.355454	-0.260957	100.000000
2134.000000	5.359827	-0.259492	100.000000
2135.000000	5.364229	-0.281015	100.000000
2136.000000	5.368650	-0.252597	100.000000
2137.000000	5.373075	-0.258827	100.000000
2138.000000	5.377505	-0.240339	100.000000
2139.000000	5.381959	-0.241658	100.000000
2140.000000	5.386447	-0.215934	100.000000
2141.000000	5.390950	-0.208992	100.000000
2142.000000	5.395471	-0.225904	100.000000
2143.000000	5.400021	-0.220719	100.000000
2144.000000	5.404595	-0.212349	100.000000
2145.000000	5.409191	-0.205189	100.000000
2146.000000	5.413808	-0.213537	100.000000
2147.000000	5.418441	-0.197944	100.000000
2148.000000	5.423089	-0.191218	100.000000
2149.000000	5.427755	-0.211754	100.000000
2150.000000	5.432439	-0.182422	100.000000
2151.000000	5.437139	-0.204712	100.000000
2152.000000	5.441851	-0.195683	100.000000
2153.000000	5.446576	-0.171542	100.000000
2154.000000	5.451319	-0.175061	100.000000
2155.000000	5.456077	-0.192064	100.000000
2156.000000	5.460853	-0.169831	100.000000
2157.000000	5.465645	-0.162918	100.000000
2158.000000	5.470431	-0.133721	100.000000
2159.000000	5.475205	-0.155679	100.000000
2160.000000	5.479972	-0.131541	100.000000
2161.000000	5.484719	-0.164228	100.000000
2162.000000	5.489438	-0.157227	100.000000
2163.000000	5.494135	-0.141667	100.000000
2164.000000	5.498816	-0.150113	100.000000
2165.000000	5.503479	-0.131027	100.000000
2166.000000	5.508122	-0.126057	100.000000
2167.000000	5.512751	-0.131229	100.000000
2168.000000	5.517368	-0.125777	100.000000
2169.000000	5.521974	-0.124241	100.000000
2170.000000	5.526589	-0.108570	100.000000
2171.000000	5.531204	-0.123949	100.000000
2172.000000	5.535814	-0.099679	100.000000
2173.000000	5.540432	-0.115192	100.000000
2174.000000	5.545061	-0.085949	100.000000
2175.000000	5.549709	-0.091225	100.000000
2176.000000	5.554394	-0.096117	100.000000
2177.000000	5.559110	-0.083924	100.000000
2178.000000	5.563844	-0.081961	100.000000
2179.000000	5.568594	-0.070187	100.000000
2180.000000	5.573364	-0.070183	100.000000
2181.000000	5.578144	-0.052880	100.000000
2182.000000	5.582924	-0.057810	100.000000
2183.000000	5.587713	-0.059512	100.000000
2184.000000	5.592524	-0.052482	100.000000
2185.000000	5.597361	-0.042261	100.000000
2186.000000	5.602212	-0.038341	100.000000
2187.000000	5.607052	-0.031660	100.000000
2188.000000	5.611878	-0.043549	100.000000
2189.000000	5.616703	-0.014550	100.000000
2190.000000	5.621542	-0.029642	100.000000
2191.000000	5.626392	-0.010706	100.000000
2192.000000	5.631243	-0.010712	100.000000
2193.000000	5.636094	-0.010666	100.000000
2194.000000	5.640951	-0.007307	100.000000
2195.000000	5.645829	-0.003456	100.000000
2196.000000	5.650725	-0.001595	100.000000
2197.000000	5.655618	0.003650	100.000000
2198.000000	5.660492	0.013928	100.000000
2199.000000	5.665344	0.020794	100.000000
2200.000000	5.670174	0.010674	100.000000
2201.000000	5.674973	0.012450	100.000000
2202.000000	5.679733	0.022896	100.000000
2203.000000	5.684455	0.021291	100.000000
2204.000000	5.689136	0.022840	100.000000
2205.000000	5.693777	0.036719	100.000000
2206.000000	5.698378	0.035147	100.000000
2207.000000	5.702931	0.062837	100.000000
2208.000000	5.707435	0.042013	100.000000
2209.000000	5.711902	0.047361	100.000000
2210.000000	5.716338	0.052461	100.000000
2211.000000	5.720739	0.057660	100.000000
2212.000000	5.725098	0.081965	100.000000
2213.000000	5.729405	0.056347	100.000000
2214.000000	5.733653	0.073525	100.000000
2215.000000	5.737840	0.073250	100.000000
2216.000000	5.741976	0.059773	100.000000
2217.000000	5.746051	0.056288	100.000000
2218.000000	5.750065	0.071934	100.000000
2219.000000	5.754017	0.080532	100.000000
2220.000000	5.757900	0.096049	100.000000
2221.000000	5.761706	0.075435	100.000000
2222.000000	5.765433	0.089304	100.000000
2223.000000	5.769080	0.096063	100.000000
2224.000000	5.772664	0.097996	100.000000
2225.000000	5.776186	0.092818	100.000000
2226.000000	5.779642	0.104836	100.000000
2227.000000	5.783046	0.091333	100.000000
2228.000000	5.786403	0.116943	100.000000
2229.000000	5.789716	0.110046	100.000000
2230.000000	5.792986	0.106897	100.000000
2231.000000	5.796201	0.104944	100.000000
2232.000000	5.799367	0.137694	100.000000
2233.000000	5.802479	0.118856	100.000000
2234.000000	5.805522	0.127472	100.000000
2235.000000	5.808490	0.127635	100.000000
2236.000000	5.811384	0.129207	100.000000
2237.000000	5.814211	0.124206	100.000000
2238.000000	5.816981	0.125991	100.000000
2239.000000	5.819682	0.134488	100.000000
2240.000000	5.822309	0.124472	100.000000
2241.000000	5.824865	0.132891	100.000000
2242.000000	5.827362	0.138151	100.000000
2243.000000	5.829812	0.120712	100.000000
2244.000000	5.832203	0.138098	100.000000
2245.000000	5.834513	0.117429	100.000000
2246.000000	5.836743	0.141632	100.000000
2247.000000	5.838894	0.139929	100.000000
2248.000000	5.840963	0.122964	100.000000
2249.000000	5.842958	0.144821	100.000000
2250.000000	5.844893	0.144906	100.000000
2251.000000	5.846776	0.134834	100.000000
2252.000000	5.848615	0.143381	100.000000
2253.000000	5.850427	0.146833	100.000000
2254.000000	5.852212	0.145033	100.000000
2255.000000	5.853957	0.165749	100.000000
2256.000000	5.855667	0.141615	100.000000
2257.000000	5.857341	0.150137	100.000000
2258.000000	5.858967	0.150239	100.000000
2259.000000	5.860549	0.148782	100.000000
2260.000000	5.862086	0.148547	100.000000
2261.000000	5.863571	0.143488	100.000000
2262.000000	5.865010	0.146766	100.000000
2263.000000	5.866411	0.148769	100.000000
2264.000000	5.867782	0.169049	100.000000
2265.000000	5.869117	0.148692	100.000000
2266.000000	5.870402	0.145253	100.000000
2267.000000	5.871643	0.162234	100.000000
2268.000000	5.872843	0.162408	100.000000
2269.000000	5.874003	0.172780	100.000000
2270.000000	5.875142	0.153850	100.000000
2271.000000	5.876264	0.157172	100.000000
2272.000000	5.877364	0.169070	100.000000
2273.000000	5.878438	0.162730	100.000000
2274.000000	5.879490	0.160540	100.000000
2275.000000	5.880540	0.154120	100.000000
2276.000000	5.881609	0.180796	100.000000
2277.000000	5.882701	0.155547	100.000000
2278.000000	5.883803	0.172231	100.000000
2279.000000	5.884917	0.172772	100.000000
2280.000000	5.886036	0.172375	100.000000
2281.000000	5.887146	0.169545	100.000000
2282.000000	5.888242	0.171134	100.000000
2283.000000	5.889334	0.179770	100.000000
2284.000000	5.890430	0.174585	100.000000
2285.000000	5.891533	0.162602	100.000000
2286.000000	5.892653	0.177893	100.000000
2287.000000	5.893791	0.179808	100.000000
2288.000000	5.894943	0.179911	100.000000
2289.000000	5.896096	0.169436	100.000000
2290.000000	5.897250	0.167670	100.000000
2291.000000	5.898412	0.181543	100.000000
2292.000000	5.899577	0.188350	100.000000
2293.000000	5.900732	0.159300	100.000000
2294.000000	5.901868	0.176614	100.000000
2295.000000	5.902986	0.171311	100.000000
2296.000000	5.904081	0.173241	100.000000
2297.000000	5.905150	0.161028	100.000000
2298.000000	5.906203	0.180252	100.000000
2299.000000	5.907249	0.161134	100.000000
2300.000000	5.908294	0.178096	100.000000
2301.000000	5.909328	0.161178	100.000000
2302.000000	5.910333	0.163101	100.000000
2303.000000	5.911309	0.156345	100.000000
2304.000000	5.912258	0.149187	100.000000
2305.000000	5.913176	0.166515	100.000000
2306.000000	5.914063	0.164700	100.000000
2307.000000	5.914911	0.157695	100.000000
2308.000000	5.915724	0.152791	100.000000
2309.000000	5.916504	0.140564	100.000000
2310.000000	5.917239	0.147651	100.000000
2311.000000	5.917912	0.134076	100.000000
2312.000000	5.918517	0.153104	100.000000
2313.000000	5.919060	0.144097	100.000000
2314.000000	5.919542	0.123608	100.000000
2315.000000	5.919965	0.154363	100.000000
2316.000000	5.920322	0.130427	100.000000
2317.000000	5.920603	0.130299	100.000000
2318.000000	5.920816	0.128641	100.000000
2319.000000	5.920963	0.130272	100.000000
2320.000000	5.921046	0.106710	100.000000
2321.000000	5.921084	0.145747	100.000000
2322.000000	5.921082	0.126726	100.000000
2323.000000	5.921037	0.126879	100.000000
2324.000000	5.920957	0.104380	100.000000
2325.000000	5.920843	0.102694	100.000000
2326.000000	5.920688	0.113211	100.000000
2327.000000	5.920489	0.118100	100.000000
2328.000000	5.920243	0.099439	100.000000
2329.000000	5.919949	0.113111	100.000000
2330.000000	5.919619	0.099363	100.000000
2331.000000	5.919261	0.123223	100.000000
2332.000000	5.918879	0.096008	100.000000
2333.000000	5.918482	0.082161	100.000000
2334.000000	5.918076	0.095923	100.000000
2335.000000	5.917650	0.104383	100.000000
2336.000000	5.917208	0.088945	100.000000
2337.000000	5.916767	0.105932	100.000000
2338.000000	5.916328	0.102636	100.000000
2339.000000	5.915889	0.093927	100.000000
2340.000000	5.915465	0.083390	100.000000
2341.000000	5.915069	0.107405	100.000000
2342.000000	5.914689	0.080145	100.000000
2343.000000	5.914313	0.078501	100.000000
2344.000000	5.913960	0.102572	100.000000
2345.000000	5.913636	0.092150	100.000000
2346.000000	5.913326	0.088698	100.000000
2347.000000	5.913020	0.097199	100.000000
2348.000000	5.912724	0.095342	100.000000
2349.000000	5.912435	0.097313	100.000000
2350.000000	5.912155	0.088310	100.000000
2351.000000	5.911891	0.098710	100.000000
2352.000000	5.911635	0.096729	100.000000
2353.000000	5.911378	0.104035	100.000000
2354.000000	5.911114	0.086610	100.000000
2355.000000	5.910842	0.100460	100.000000
2356.000000	5.910574	0.077951	100.000000
2357.000000	5.910308	0.088219	100.000000
2358.000000	5.910046	0.074738	100.000000
2359.000000	5.909782	0.095133	100.000000
2360.000000	5.909497	0.091620	100.000000
2361.000000	5.909188	0.093428	100.000000
2362.000000	5.908863	0.084645	100.000000
2363.000000	5.908522	0.089828	100.000000
2364.000000	5.908160	0.098442	100.000000
2365.000000	5.907776	0.084666	100.000000
2366.000000	5.907367	0.070817	100.000000
2367.000000	5.906932	0.100104	100.000000
2368.000000	5.906481	0.058887	100.000000
2369.000000	5.906025	0.105010	100.000000
2370.000000	5.905569	0.086109	100.000000
2371.000000	5.905107	0.098180	100.000000
2372.000000	5.904627	0.080968	100.000000
2373.000000	5.904129	0.082504	100.000000
2374.000000	5.903607	0.081006	100.000000
2375.000000	5.903075	0.105302	100.000000
2376.000000	5.902547	0.073926	100.000000
2377.000000	5.902024	0.089404	100.000000
2378.000000	5.901502	0.092781	100.000000
2379.000000	5.900978	0.085972	100.000000
2380.000000	5.900472	0.092758	100.000000
2381.000000	5.900002	0.091082	100.000000
2382.000000	5.899569	0.085722	100.000000
2383.000000	5.899184	0.101505	100.000000
2384.000000	5.898854	0.090937	100.000000
2385.000000	5.898573	0.087706	100.000000
2386.000000	5.898348	0.101319	100.000000
2387.000000	5.898196	0.099636	100.000000
2388.000000	5.898110	0.103057	100.000000
2389.000000	5.898084	0.115081	100.000000
2390.000000	5.898126	0.107968	100.000000
2391.000000	5.898242	0.099666	100.000000
2392.000000	5.898427	0.104649	100.000000
2393.000000	5.898675	0.118442	100.000000
2394.000000	5.898991	0.106342	100.000000
2395.000000	5.899380	0.096235	100.000000
2396.000000	5.899831	0.125558	100.000000
2397.000000	5.900343	0.099809	100.000000
2398.000000	5.900915	0.094621	100.000000
2399.000000	5.901546	0.115265	100.000000
2400.000000	5.902238	0.105197	100.000000
2401.000000	5.902989	0.123682	100.000000
2402.000000	5.903793	0.110037	100.000000
2403.000000	5.904655	0.125763	100.000000
2404.000000	5.905589	0.125590	100.000000
2405.000000	5.906598	0.120220	100.000000
2406.000000	5.907673	0.122097	100.000000
2407.000000	5.908825	0.125381	100.000000
2408.000000	5.910057	0.130642	100.000000
2409.000000	5.911351	0.111800	100.000000
2410.000000	5.912707	0.134063	100.000000
2411.000000	5.914123	0.117179	100.000000
2412.000000	5.915563	0.136092	100.000000
2413.000000	5.917016	0.125840	100.000000
2414.000000	5.918489	0.120529	100.000000
2415.000000	5.919980	0.119008	100.000000
2416.000000	5.921482	0.125689	100.000000
2417.000000	5.922985	0.107055	100.000000
2418.000000	5.924487	0.141026	100.000000
2419.000000	5.925993	0.129366	100.000000
2420.000000	5.927498	0.142984	100.000000
2421.000000	5.929001	0.110584	100.000000
2422.000000	5.930510	0.122336	100.000000
2423.000000	5.932016	0.124420	100.000000
2424.000000	5.933505	0.137862	100.000000
2425.000000	5.934987	0.136405	100.000000
2426.000000	5.936471	0.134587	100.000000
2427.000000	5.937949	0.122648	100.000000
2428.000000	5.939411	0.143141	100.000000
2429.000000	5.940867	0.138118	100.000000
2430.000000	5.942328	0.138016	100.000000
2431.000000	5.943800	0.143194	100.000000
2432.000000	5.945279	0.133144	100.000000
2433.000000	5.946748	0.143325	100.000000
2434.000000	5.948209	0.126330	100.000000
2435.000000	5.949668	0.146982	100.000000
2436.000000	5.951114	0.135010	100.000000
2437.000000	5.952533	0.121266	100.000000
2438.000000	5.953938	0.143499	100.000000
2439.000000	5.955331	0.140266	100.000000
2440.000000	5.956684	0.133307	100.000000
2441.000000	5.957991	0.136939	100.000000
2442.000000	5.959253	0.136900	100.000000
2443.000000	5.960467	0.116253	100.000000
2444.000000	5.961642	0.141844	100.000000
2445.000000	5.962787	0.133366	100.000000
2446.000000	5.963896	0.131624	100.000000
2447.000000	5.964962	0.130022	100.000000
2448.000000	5.966002	0.136797	100.000000
2449.000000	5.967037	0.136935	100.000000
2450.000000	5.968073	0.138594	100.000000
2451.000000	5.969116	0.133306	100.000000
2452.000000	5.970163	0.119709	100.000000
2453.000000	5.971197	0.145589	100.000000
2454.000000	5.972212	0.131866	100.000000
2455.000000	5.973212	0.131820	100.000000
2456.000000	5.974204	0.143878	100.000000
2457.000000	5.975194	0.143700	100.000000
2458.000000	5.976172	0.145491	100.000000
2459.000000	5.977139	0.136584	100.000000
2460.000000	5.978107	0.150616	100.000000
2461.000000	5.979077	0.149094	100.000000
2462.000000	5.980050	0.140399	100.000000
2463.000000	5.981029	0.148754	100.000000
2464.000000	5.982010	0.126735	100.000000
2465.000000	5.982991	0.136832	100.000000
2466.000000	5.983971	0.133767	100.000000
2467.000000	5.984948	0.164225	100.000000
2468.000000	5.985925	0.125060	100.000000
2469.000000	5.986911	0.123108	100.000000
2470.000000	5.987922	0.149314	100.000000
2471.000000	5.988953	0.136909	100.000000
2472.000000	5.989988	0.142377	100.000000
2473.000000	5.991023	0.155852	100.000000
2474.000000	5.992069	0.149070	100.000000
2475.000000	5.993136	0.154309	100.000000
2476.000000	5.994226	0.137198	100.000000
2477.000000	5.995349	0.133614	100.000000
2478.000000	5.996520	0.162851	100.000000
2479.000000	5.997731	0.159358	100.000000
2480.000000	5.998973	0.152584	100.000000
2481.000000	6.000262	0.149070	100.000000
2482.000000	6.001612	0.168221	100.000000
2483.000000	6.003010	0.169838	100.000000
2484.000000	6.004440	0.149381	100.000000
2485.000000	6.005900	0.188726	100.000000
2486.000000	6.007386	0.153160	100.000000
2487.000000	6.008901	0.164999	100.000000
2488.000000	6.010458	0.168389	100.000000
2489.000000	6.012070	0.185663	100.000000
2490.000000	6.013742	0.166886	100.000000
2491.000000	6.015482	0.180395	100.000000
2492.000000	6.017274	0.158571	100.000000
2493.000000	6.019093	0.163485	100.000000
2494.000000	6.020934	0.173923	100.000000
2495.000000	6.022796	0.172301	100.000000
2496.000000	6.024672	0.184395	100.000000
2497.000000	6.026557	0.153566	100.000000
2498.000000	6.028459	0.182863	100.000000
2499.000000	6.030388	0.169020	100.000000
2500.000000	6.032337	0.164186	100.000000
2501.000000	6.034308	0.172649	100.000000
2502.000000	6.036309	0.172767	100.000000
2503.000000	6.038342	0.188010	100.000000
2504.000000	6.040399	0.179770	100.000000
2505.000000	6.042479	0.184946	100.000000
2506.000000	6.044592	0.179947	100.000000
2507.000000	6.046729	0.169434	100.000000
2508.000000	6.048887	0.180007	100.000000
2509.000000	6.051072	0.171459	100.000000
2510.000000	6.053277	0.185198	100.000000
2511.000000	6.055496	0.180381	100.000000
2512.000000	6.057726	0.156444	100.000000
2513.000000	6.059967	0.185704	100.000000
2514.000000	6.062214	0.173448	100.000000
2515.000000	6.064471	0.190789	100.000000
2516.000000	6.066736	0.165467	100.000000
2517.000000	6.069001	0.168917	100.000000
2518.000000	6.071259	0.174012	100.000000
2519.000000	6.073515	0.182787	100.000000
2520.000000	6.075779	0.169144	100.000000
2521.000000	6.078024	0.169097	100.000000
2522.000000	6.080199	0.169328	100.000000
2523.000000	6.082312	0.179607	100.000000
2524.000000	6.084403	0.177806	100.000000
2525.000000	6.086482	0.184941	100.000000
2526.000000	6.088552	0.171192	100.000000
2527.000000	6.090633	0.176279	100.000000
2528.000000	6.092711	0.162689	100.000000
2529.000000	6.094758	0.154265	100.000000
2530.000000	6.096765	0.178438	100.000000
2531.000000	6.098746	0.155961	100.000000
2532.000000	6.100717	0.181660	100.000000
2533.000000	6.102672	0.154669	100.000000
2534.000000	6.104587	0.161434	100.000000
2535.000000	6.106457	0.168221	100.000000
2536.000000	6.108286	0.151330	100.000000
2537.000000	6.110067	0.164923	100.000000
2538.000000	6.111803	0.149640	100.000000
2539.000000	6.113509	0.147915	100.000000
2540.000000	6.115207	0.161680	100.000000
2541.000000	6.116901	0.134171	100.000000
2542.000000	6.118572	0.151426	100.000000
2543.000000	6.120218	0.148072	100.000000
2544.000000	6.121854	0.139349	100.000000
2545.000000	6.123481	0.156839	100.000000
2546.000000	6.125095	0.138311	100.000000
2547.000000	6.126694	0.146847	100.000000
2548.000000	6.128276	0.146500	100.000000
2549.000000	6.129850	0.139946	100.000000
2550.000000	6.131429	0.138262	100.000000
2551.000000	6.133013	0.143646	100.000000
2552.000000	6.134596	0.153661	100.000000
2553.000000	6.136184	0.148698	100.000000
2554.000000	6.137780	0.145278	100.000000
2555.000000	6.139371	0.143856	100.000000
2556.000000	6.140948	0.145283	100.000000
2557.000000	6.142514	0.133738	100.000000
2558.000000	6.144070	0.147215	100.000000
2559.000000	6.145621	0.159326	100.000000
2560.000000	6.147188	0.167740	100.000000
2561.000000	6.148767	0.140821	100.000000
2562.000000	6.150338	0.138667	100.000000
2563.000000	6.151890	0.142945	100.000000
2564.000000	6.153433	0.135318	100.000000
2565.000000	6.154970	0.140806	100.000000
2566.000000	6.156497	0.149385	100.000000
2567.000000	6.157999	0.144428	100.000000
2568.000000	6.159452	0.140933	100.000000
2569.000000	6.160863	0.142685	100.000000
2570.000000	6.162264	0.139295	100.000000
2571.000000	6.163650	0.132456	100.000000
2572.000000	6.165016	0.141022	100.000000
2573.000000	6.166359	0.130715	100.000000
2574.000000	6.167668	0.158558	100.000000
2575.000000	6.168937	0.139657	100.000000
2576.000000	6.170164	0.131017	100.000000
2577.000000	6.171349	0.127413	100.000000
2578.000000	6.172488	0.137939	100.000000
2579.000000	6.173587	0.105442	100.000000
2580.000000	6.174649	0.114294	100.000000
2581.000000	6.175659	0.136496	100.000000
2582.000000	6.176622	0.126363	100.000000
2583.000000	6.177553	0.102271	100.000000
2584.000000	6.178450	0.116120	100.000000
2585.000000	6.179317	0.119438	100.000000
2586.000000	6.180161	0.121258	100.000000
2587.000000	6.180970	0.126363	100.000000
2588.000000	6.181736	0.116250	100.000000
2589.000000	6.182468	0.114587	100.000000
2590.000000	6.183176	0.131845	100.000000
2591.000000	6.183845	0.121435	100.000000
2592.000000	6.184461	0.109549	100.000000
2593.000000	6.185044	0.107857	100.000000
2594.000000	6.185609	0.107960	100.000000
2595.000000	6.186162	0.118221	100.000000
2596.000000	6.186710	0.097776	100.000000
2597.000000	6.187247	0.104696	100.000000
2598.000000	6.187766	0.118427	100.000000
2599.000000	6.188263	0.092782	100.000000
2600.000000	6.188749	0.111649	100.000000
2601.000000	6.189235	0.085787	100.000000
2602.000000	6.189714	0.091152	100.000000
2603.000000	6.190168	0.098108	100.000000
2604.000000	6.190584	0.091125	100.000000
2605.000000	6.190969	0.085951	100.000000
2606.000000	6.191344	0.094796	100.000000
2607.000000	6.191720	0.093236	100.000000
2608.000000	6.192092	0.074387	100.000000
2609.000000	6.192447	0.102062	100.000000
2610.000000	6.192779	0.086276	100.000000
2611.000000	6.193099	0.074396	100.000000
2612.000000	6.193424	0.082887	100.000000
2613.000000	6.193753	0.069162	100.000000
2614.000000	6.194070	0.081407	100.000000
2615.000000	6.194370	0.062662	100.000000
2616.000000	6.194658	0.067668	100.000000
2617.000000	6.194932	0.065916	100.000000
2618.000000	6.195184	0.064320	100.000000
2619.000000	6.195417	0.089920	100.000000
2620.000000	6.195641	0.073147	100.000000
2621.000000	6.195853	0.064453	100.000000
2622.000000	6.196054	0.062695	100.000000
2623.000000	6.196249	0.050839	100.000000
2624.000000	6.196436	0.066241	100.000000
2625.000000	6.196607	0.061090	100.000000
2626.000000	6.196764	0.059399	100.000000
2627.000000	6.196917	0.064719	100.000000
2628.000000	6.197064	0.050818	100.000000
2629.000000	6.197196	0.052556	100.000000
2630.000000	6.197305	0.040746	100.000000
2631.000000	6.197387	0.040611	100.000000
2632.000000	6.197455	0.045912	100.000000
2633.000000	6.197517	0.028820	100.000000
2634.000000	6.197574	0.047633	100.000000
2635.000000	6.197632	0.032060	100.000000
2636.000000	6.197705	0.037482	100.000000
2637.000000	6.197800	0.047604	100.000000
2638.000000	6.197916	0.039022	100.000000
2639.000000	6.198042	0.027147	100.000000
2640.000000	6.198170	0.032479	100.000000
2641.000000	6.198301	0.040858	100.000000
2642.000000	6.198449	0.039262	100.000000
2643.000000	6.198631	0.035543	100.000000
2644.000000	6.198841	0.032310	100.000000
2645.000000	6.199072	0.049262	100.000000
2646.000000	6.199328	0.030592	100.000000
2647.000000	6.199600	0.037378	100.000000
2648.000000	6.199885	0.029028	100.000000
2649.000000	6.200199	0.044090	100.000000
2650.000000	6.200546	0.034011	100.000000
2651.000000	6.200904	0.049338	100.000000
2652.000000	6.201268	0.042468	100.000000
2653.000000	6.201649	0.037370	100.000000
2654.000000	6.202042	0.054600	100.000000
2655.000000	6.202441	0.026917	100.000000
2656.000000	6.202842	0.042628	100.000000
2657.000000	6.203238	0.025313	100.000000
2658.000000	6.203635	0.028630	100.000000
2659.000000	6.204043	0.049402	100.000000
2660.000000	6.204453	0.033914	100.000000
2661.000000	6.204856	0.052738	100.000000
2662.000000	6.205245	0.033979	100.000000
2663.000000	6.205596	0.021846	100.000000
2664.000000	6.205891	0.030440	100.000000
2665.000000	6.206134	0.022042	100.000000
2666.000000	6.206326	0.018632	100.000000
2667.000000	6.206465	0.027102	100.000000
2668.000000	6.206555	0.011656	100.000000
2669.000000	6.206593	0.043905	100.000000
2670.000000	6.206569	0.021585	100.000000
2671.000000	6.206485	0.030136	100.000000
2672.000000	6.206354	0.016805	100.000000
2673.000000	6.206174	-0.000645	100.000000
2674.000000	6.205943	0.020090	100.000000
2675.000000	6.205674	0.019857	100.000000
2676.000000	6.205375	0.012955	100.000000
2677.000000	6.205050	0.009634	100.000000
2678.000000	6.204690	0.018028	100.000000
2679.000000	6.204288	0.018419	100.000000
2680.000000	6.203840	0.000909	100.000000
2681.000000	6.203357	0.019661	100.000000
2682.000000	6.202861	0.012849	100.000000
2683.000000	6.202365	0.028423	100.000000
2684.000000	6.201885	0.014338	100.000000
2685.000000	6.201432	0.014658	100.000000
2686.000000	6.200996	0.019562	100.000000
2687.000000	6.200579	0.016312	100.000000
2688.000000	6.200184	0.017910	100.000000
2689.000000	6.199804	0.033423	100.000000
2690.000000	6.199449	0.034027	100.000000
2691.000000	6.199130	0.021512	100.000000
2692.000000	6.198862	0.022965	100.000000
2693.000000	6.198662	0.017796	100.000000
2694.000000	6.198538	0.011040	100.000000
2695.000000	6.198498	0.030122	100.000000
2696.000000	6.198547	0.028214	100.000000
2697.000000	6.198672	0.026673	100.000000
2698.000000	6.198861	0.028585	100.000000
2699.000000	6.199116	0.040475	100.000000
2700.000000	6.199459	0.031464	100.000000
2701.000000	6.199908	0.018328	100.000000
2702.000000	6.200448	0.033638	100.000000
2703.000000	6.201059	0.033558	100.000000
2704.000000	6.201737	0.046958	100.000000
2705.000000	6.202479	0.040421	100.000000
2706.000000	6.203284	0.037001	100.000000
2707.000000	6.204144	0.042248	100.000000
2708.000000	6.205038	0.052449	100.000000
2709.000000	6.205953	0.054112	100.000000
2710.000000	6.206884	0.047418	100.000000
2711.000000	6.207831	0.038846	100.000000
2712.000000	6.208798	0.072988	100.000000
2713.000000	6.209784	0.033726	100.000000
2714.000000	6.210784	0.062988	100.000000
2715.000000	6.211797	0.066082	100.000000
2716.000000	6.212823	0.064521	100.000000
2717.000000	6.213848	0.076438	100.000000
2718.000000	6.214853	0.073078	100.000000
2719.000000	6.215827	0.057727	100.000000
2720.000000	6.216774	0.076675	100.000000
2721.000000	6.217713	0.055864	100.000000
2722.000000	6.218653	0.090242	100.000000
2723.000000	6.219586	0.093475	100.000000
2724.000000	6.220520	0.090079	100.000000
2725.000000	6.221468	0.076576	100.000000
2726.000000	6.222433	0.076394	100.000000
2727.000000	6.223396	0.078389	100.000000
2728.000000	6.224344	0.076375	100.000000
2729.000000	6.225283	0.117469	100.000000
2730.000000	6.226239	0.129345	100.000000
2731.000000	6.227224	0.110621	100.000000
2732.000000	6.228246	0.098715	100.000000
2733.000000	6.229322	0.117611	100.000000
2734.000000	6.230443	0.115916	100.000000
2735.000000	6.231591	0.131370	100.000000
2736.000000	6.232763	0.136542	100.000000
2737.000000	6.233969	0.143228	100.000000
2738.000000	6.235233	0.158837	100.000000
2739.000000	6.236570	0.148190	100.000000
2740.000000	6.237987	0.157077	100.000000
2741.000000	6.239491	0.159132	100.000000
2742.000000	6.241083	0.172543	100.000000
2743.000000	6.242767	0.171214	100.000000
2744.000000	6.244535	0.181472	100.000000
2745.000000	6.246374	0.183338	100.000000
2746.000000	6.248282	0.203881	100.000000
2747.000000	6.250272	0.217357	100.000000
2748.000000	6.252363	0.217592	100.000000
2749.000000	6.254566	0.203729	100.000000
2750.000000	6.256881	0.222717	100.000000
2751.000000	6.259309	0.229481	100.000000
2752.000000	6.261844	0.228282	100.000000
2753.000000	6.264477	0.236565	100.000000
2754.000000	6.267216	0.248841	100.000000
2755.000000	6.270060	0.260793	100.000000
2756.000000	6.272993	0.267784	100.000000
2757.000000	6.276009	0.269754	100.000000
2758.000000	6.279105	0.292157	100.000000
2759.000000	6.282279	0.295552	100.000000
2760.000000	6.285526	0.280411	100.000000
2761.000000	6.288837	0.297698	100.000000
2762.000000	6.292213	0.307935	100.000000
2763.000000	6.295664	0.309834	100.000000
2764.000000	6.299200	0.313273	100.000000
2765.000000	6.302822	0.324084	100.000000
2766.000000	6.306529	0.332544	100.000000
2767.000000	6.310315	0.324032	100.000000
2768.000000	6.314175	0.315289	100.000000
2769.000000	6.318107	0.334590	100.000000
2770.000000	6.322090	0.360436	100.000000
2771.000000	6.326106	0.358649	100.000000
2772.000000	6.330165	0.360491	100.000000
2773.000000	6.334275	0.358769	100.000000
2774.000000	6.338437	0.386565	100.000000
2775.000000	6.342637	0.384782	100.000000
2776.000000	6.346866	0.388445	100.000000
2777.000000	6.351131	0.396895	100.000000
2778.000000	6.355438	0.416062	100.000000
2779.000000	6.359786	0.405766	100.000000
2780.000000	6.364171	0.427988	100.000000
2781.000000	6.368583	0.416332	100.000000
2782.000000	6.373016	0.440249	100.000000
2783.000000	6.377472	0.450717	100.000000
2784.000000	6.381951	0.443976	100.000000
2785.000000	6.386448	0.445962	100.000000
2786.000000	6.390953	0.461274	100.000000
2787.000000	6.395473	0.468378	100.000000
2788.000000	6.400016	0.487372	100.000000
2789.000000	6.404566	0.491043	100.000000
2790.000000	6.409104	0.492701	100.000000
2791.000000	6.413629	0.486069	100.000000
2792.000000	6.418146	0.508729	100.000000
2793.000000	6.422655	0.501638	100.000000
2794.000000	6.427163	0.518922	100.000000
2795.000000	6.431678	0.519145	100.000000
2796.000000	6.436197	0.541427	100.000000
2797.000000	6.440714	0.533217	100.000000
2798.000000	6.445228	0.538477	100.000000
2799.000000	6.449745	0.559294	100.000000
2800.000000	6.454269	0.547256	100.000000
2801.000000	6.458790	0.545566	100.000000
2802.000000	6.463309	0.576724	100.000000
2803.000000	6.467832	0.575126	100.000000
2804.000000	6.472365	0.580581	100.000000
2805.000000	6.476905	0.579149	100.000000
2806.000000	6.481441	0.584260	100.000000
2807.000000	6.485974	0.582798	100.000000
2808.000000	6.490502	0.601830	100.000000
2809.000000	6.495024	0.591665	100.000000
2810.000000	6.499552	0.615853	100.000000
2811.000000	6.504100	0.629565	100.000000
2812.000000	6.508660	0.621428	100.000000
2813.000000	6.513228	0.640414	100.000000
2814.000000	6.517813	0.637084	100.000000
2815.000000	6.522419	0.643855	100.000000
2816.000000	6.527051	0.637078	100.000000
2817.000000	6.531724	0.656376	100.000000
2818.000000	6.536446	0.677276	100.000000
2819.000000	6.541224	0.668767	100.000000
2820.000000	6.546076	0.679136	100.000000
2821.000000	6.551013	0.686424	100.000000
2822.000000	6.556027	0.707107	100.000000
2823.000000	6.561112	0.705692	100.000000
2824.000000	6.566270	0.707590	100.000000
2825.000000	6.571489	0.719672	100.000000
2826.000000	6.576765	0.725015	100.000000
2827.000000	6.582106	0.721935	100.000000
2828.000000	6.587516	0.734147	100.000000
2829.000000	6.592987	0.751370	100.000000
2830.000000	6.598508	0.741267	100.000000
2831.000000	6.604065	0.767505	100.000000
2832.000000	6.609651	0.741783	100.000000
2833.000000	6.615267	0.767560	100.000000
2834.000000	6.620916	0.778170	100.000000
2835.000000	6.626587	0.780246	100.000000
2836.000000	6.632275	0.795768	100.000000
2837.000000	6.637991	0.787289	100.000000
2838.000000	6.643735	0.792753	100.000000
2839.000000	6.649497	0.787704	100.000000
2840.000000	6.655268	0.801818	100.000000
