0.000000	5.798018	0.010009	8.926966
1.000000	5.754389	0.027345	8.926966
2.000000	5.670379	0.021914	8.926966
3.000000	5.551617	0.013617	8.926966
4.000000	5.403303	0.014607	8.926966
5.000000	5.230189	0.020232	8.926966
6.000000	5.036667	-0.000162	8.926966
7.000000	4.826784	0.018615	8.926966
8.000000	4.604210	0.016742	8.926966
9.000000	4.372255	0.014837	8.926966
10.000000	4.133898	0.015113	8.926966
11.000000	3.891807	0.021875	8.926966
12.000000	3.648381	0.018536	8.926966
13.000000	3.405746	0.009843	8.926966
14.000000	3.165719	0.026841	8.926966
15.000000	2.929866	0.009861	8.926966
16.000000	2.699559	0.018724	8.926966
17.000000	2.475967	0.021890	8.926966
18.000000	2.260044	-0.000377	8.926966
19.000000	2.052551	0.019990	8.926966
20.000000	1.854093	0.009901	8.926966
21.000000	1.665156	0.020337	8.926966
22.000000	1.486110	0.013422	8.926966
23.000000	1.317198	0.032199	8.926966
24.000000	1.158525	0.016682	8.926966
25.000000	1.010072	0.011429	8.926966
26.000000	0.871749	0.008219	8.926966
27.000000	0.743424	0.018187	8.926966
28.000000	0.624901	0.023562	8.926966
29.000000	0.515906	0.006423	8.926966
30.000000	0.416138	0.018455	8.926966
31.000000	0.325297	0.029050	8.926966
32.000000	0.243040	0.018289	8.926966
33.000000	0.168954	0.025329	8.926966
34.000000	0.102611	0.013290	8.926966
35.000000	0.043605	0.011557	8.926966
36.000000	-0.008468	0.032318	8.926966
37.000000	-0.054040	0.025026	8.926966
38.000000	-0.093570	-0.000690	8.926966
39.000000	-0.127502	0.026968	8.926966
40.000000	-0.156241	0.021994	8.926966
41.000000	-0.180182	0.004691	8.926966
42.000000	-0.199720	0.021728	8.926966
43.000000	-0.215247	0.032136	8.926966
44.000000	-0.227136	0.033989	8.926966
45.000000	-0.235728	0.015040	8.926966
46.000000	-0.241349	0.013157	8.926966
47.000000	-0.244317	0.009569	8.926966
48.000000	-0.244949	0.021707	8.926966
49.000000	-0.243549	0.035604	8.926966
50.000000	-0.240376	-0.000389	8.926966
51.000000	-0.235639	0.011571	8.926966
52.000000	-0.229556	0.014860	8.926966
53.000000	-0.222358	0.028656	8.926966
54.000000	-0.214241	0.011606	8.926966
55.000000	-0.205358	0.001056	8.926966
56.000000	-0.195857	0.014951	8.926966
57.000000	-0.185906	0.021782	8.926966
58.000000	-0.175657	0.018476	8.926966
59.000000	-0.165217	0.023538	8.926966
60.000000	-0.154683	0.006370	8.926966
61.000000	-0.144153	0.026887	8.926966
62.000000	-0.133720	0.021804	8.926966
63.000000	-0.123465	0.033942	8.926966
64.000000	-0.113451	0.011728	8.926966
65.000000	-0.103709	0.007944	8.926966
66.000000	-0.094279	0.014788	8.926966
67.000000	-0.085223	0.025364	8.926966
68.000000	-0.076569	0.010002	8.926966
69.000000	-0.068307	-0.005493	8.926966
70.000000	-0.060436	0.006468	8.926966
71.000000	-0.052996	0.020174	8.926966
72.000000	-0.046014	0.035773	8.926966
73.000000	-0.039491	0.013515	8.926966
74.000000	-0.033410	0.001083	8.926966
75.000000	-0.027751	0.004415	8.926966
76.000000	-0.022526	0.023447	8.926966
77.000000	-0.017742	0.003146	8.926966
78.000000	-0.013380	0.015181	8.926966
79.000000	-0.009400	0.010023	8.926966
80.000000	-0.005758	0.018464	8.926966
81.000000	-0.002466	0.018209	8.926966
82.000000	0.000457	0.018403	8.926966
83.000000	0.003030	-0.001988	8.926966
84.000000	0.005304	0.001569	8.926966
85.000000	0.007326	0.019924	8.926966
86.000000	0.009088	0.035348	8.926966
87.000000	0.010574	0.013485	8.926966
88.000000	0.011821	0.003319	8.926966
89.000000	0.012869	0.008286	8.926966
90.000000	0.013724	0.021648	8.926966
91.000000	0.014382	0.018479	8.926966
92.000000	0.014857	0.023865	8.926966
93.000000	0.015192	0.001256	8.926966
94.000000	0.015420	0.006651	8.926966
95.000000	0.015548	0.009870	8.926966
96.000000	0.015560	0.009932	8.926966
97.000000	0.015449	0.029081	8.926966
98.000000	0.015250	0.025239	8.926966
99.000000	0.014985	0.006522	8.926966
100.000000	0.014643	0.028972	8.926966
101.000000	0.014236	0.017100	8.926966
102.000000	0.013793	0.013222	8.926966
103.000000	0.013343	0.009610	8.926966
104.000000	0.012908	0.004665	8.926966
105.000000	0.012478	0.013500	8.926966
106.000000	0.012022	0.018766	8.926966
107.000000	0.011551	0.010079	8.926966
108.000000	0.011087	0.018600	8.926966
109.000000	0.010625	0.013384	8.926966
110.000000	0.010140	0.015270	8.926966
111.000000	0.009643	0.004866	8.926966
112.000000	0.009171	0.004970	8.926966
113.000000	0.008740	-0.000537	8.926966
114.000000	0.008318	0.008193	8.926966
115.000000	0.007865	0.025464	8.926966
116.000000	0.007393	0.017062	8.926966
117.000000	0.006938	0.011886	8.926966
118.000000	0.006500	0.009958	8.926966
119.000000	0.006073	0.017022	8.926966
120.000000	0.005663	0.010270	8.926966
121.000000	0.005279	0.022406	8.926966
122.000000	0.004930	-0.008916	8.926966
123.000000	0.004610	0.006533	8.926966
124.000000	0.004305	0.018771	8.926966
125.000000	0.004019	0.008385	8.926966
126.000000	0.003764	0.004992	8.926966
127.000000	0.003554	0.010082	8.926966
128.000000	0.003385	0.028856	8.926966
129.000000	0.003227	0.017060	8.926966
130.000000	0.003065	0.015475	8.926966
131.000000	0.002932	-0.001786	8.926966
132.000000	0.002848	0.022225	8.926966
133.000000	0.002783	0.028839	8.926966
134.000000	0.002708	0.013421	8.926966
135.000000	0.002635	0.008668	8.926966
136.000000	0.002586	0.009774	8.926966
137.000000	0.002561	0.008378	8.926966
138.000000	0.002535	0.028766	8.926966
139.000000	0.002495	0.001582	8.926966
140.000000	0.002441	0.006731	8.926966
141.000000	0.002378	0.013472	8.926966
142.000000	0.002321	0.018887	8.926966
143.000000	0.002290	0.013537	8.926966
144.000000	0.002273	0.006780	8.926966
145.000000	0.002246	0.012082	8.926966
146.000000	0.002217	0.022060	8.926966
147.000000	0.002210	0.008368	8.926966
148.000000	0.002222	0.027114	8.926966
149.000000	0.002226	0.016937	8.926966
150.000000	0.002215	0.012070	8.926966
151.000000	0.002208	0.013479	8.926966
152.000000	0.002228	0.003378	8.926966
153.000000	0.002275	0.006508	8.926966
154.000000	0.002327	0.008561	8.926966
155.000000	0.002376	0.029173	8.926966
156.000000	0.002423	0.001613	8.926966
157.000000	0.002464	0.023697	8.926966
158.000000	0.002492	0.025530	8.926966
159.000000	0.002516	-0.001975	8.926966
160.000000	0.002556	0.010108	8.926966
161.000000	0.002617	0.008162	8.926966
162.000000	0.002677	0.018571	8.926966
163.000000	0.002703	0.028844	8.926966
164.000000	0.002695	0.018793	8.926966
165.000000	0.002685	0.017186	8.926966
166.000000	0.002693	0.006574	8.926966
167.000000	0.002728	0.003213	8.926966
168.000000	0.002782	0.001677	8.926966
169.000000	0.002850	0.015306	8.926966
170.000000	0.002935	0.006723	8.926966
171.000000	0.003038	0.016855	8.926966
172.000000	0.003146	0.006480	8.926966
173.000000	0.003235	0.032388	8.926966
174.000000	0.003308	0.006699	8.926966
175.000000	0.003395	-0.003655	8.926966
176.000000	0.003511	0.025498	8.926966
177.000000	0.003640	0.006527	8.926966
178.000000	0.003750	0.018527	8.926966
179.000000	0.003837	0.001518	8.926966
180.000000	0.003925	0.010016	8.926966
181.000000	0.004020	0.013074	8.926966
182.000000	0.004106	0.016904	8.926966
183.000000	0.004167	0.025505	8.926966
184.000000	0.004212	-0.000158	8.926966
185.000000	0.004283	-0.005263	8.926966
186.000000	0.004396	0.016731	8.926966
187.000000	0.004507	0.022122	8.926966
188.000000	0.004584	0.015457	8.926966
189.000000	0.004636	0.010186	8.926966
190.000000	0.004692	0.008315	8.926966
191.000000	0.004772	0.016754	8.926966
192.000000	0.004864	0.018590	8.926966
193.000000	0.004944	0.011826	8.926966
194.000000	0.005000	0.020282	8.926966
195.000000	0.005043	0.013181	8.926966
196.000000	0.005079	0.008396	8.926966
197.000000	0.005103	-0.005047	8.926966
198.000000	0.005109	0.003246	8.926966
199.000000	0.005108	0.013231	8.926966
200.000000	0.005093	0.020213	8.926966
201.000000	0.005050	0.018593	8.926966
202.000000	0.004993	0.008517	8.926966
203.000000	0.004943	0.011862	8.926966
204.000000	0.004912	-0.007219	8.926966
205.000000	0.004902	0.018626	8.926966
206.000000	0.004898	0.020450	8.926966
207.000000	0.004894	0.030914	8.926966
208.000000	0.004900	0.015469	8.926966
209.000000	0.004920	0.030483	8.926966
210.000000	0.004945	0.006742	8.926966
211.000000	0.004966	0.017122	8.926966
212.000000	0.004986	-0.006907	8.926966
213.000000	0.005020	0.013459	8.926966
214.000000	0.005061	0.018532	8.926966
215.000000	0.005060	0.013595	8.926966
216.000000	0.005006	0.005077	8.926966
217.000000	0.004946	0.015190	8.926966
218.000000	0.004908	0.004807	8.926966
219.000000	0.004877	0.008109	8.926966
220.000000	0.004837	0.010005	8.926966
221.000000	0.004786	0.013708	8.926966
222.000000	0.004745	0.025857	8.926966
223.000000	0.004728	0.008476	8.926966
224.000000	0.004725	0.016798	8.926966
225.000000	0.004709	0.011784	8.926966
226.000000	0.004674	0.015165	8.926966
227.000000	0.004635	0.001541	8.926966
228.000000	0.004614	0.009951	8.926966
229.000000	0.004611	0.021692	8.926966
230.000000	0.004616	0.020318	8.926966
231.000000	0.004616	0.011712	8.926966
232.000000	0.004617	0.001697	8.926966
233.000000	0.004641	0.006657	8.926966
234.000000	0.004686	0.020075	8.926966
235.000000	0.004722	0.028782	8.926966
236.000000	0.004753	-0.008723	8.926966
237.000000	0.004804	0.008353	8.926966
238.000000	0.004879	0.018678	8.926966
239.000000	0.004972	0.004831	8.926966
240.000000	0.005066	0.016951	8.926966
241.000000	0.005143	0.015212	8.926966
242.000000	0.005214	0.013325	8.926966
243.000000	0.005301	0.016750	8.926966
244.000000	0.005390	0.019980	8.926966
245.000000	0.005466	-0.000101	8.926966
246.000000	0.005547	0.010050	8.926966
247.000000	0.005642	0.011533	8.926966
248.000000	0.005739	0.015061	8.926966
249.000000	0.005831	0.009931	8.926966
250.000000	0.005919	0.004727	8.926966
251.000000	0.006012	0.011754	8.926966
252.000000	0.006121	-0.003870	8.926966
253.000000	0.006237	0.013318	8.926966
254.000000	0.006343	0.004633	8.926966
255.000000	0.006435	0.013467	8.926966
256.000000	0.006523	0.015203	8.926966
257.000000	0.006621	0.003278	8.926966
258.000000	0.006744	0.001359	8.926966
259.000000	0.006877	0.006251	8.926966
260.000000	0.006993	0.006466	8.926966
261.000000	0.007083	0.006585	8.926966
262.000000	0.007167	0.035702	8.926966
263.000000	0.007252	0.004687	8.926966
264.000000	0.007326	0.011618	8.926966
265.000000	0.007394	0.021849	8.926966
266.000000	0.007469	0.016627	8.926966
267.000000	0.007553	0.015019	8.926966
268.000000	0.007637	0.009715	8.926966
269.000000	0.007712	0.018336	8.926966
270.000000	0.007774	0.014862	8.926966
271.000000	0.007827	0.013356	8.926966
272.000000	0.007880	0.016747	8.926966
273.000000	0.007942	0.018279	8.926966
274.000000	0.008011	0.016673	8.926966
275.000000	0.008084	0.023520	8.926966
276.000000	0.008163	0.011532	8.926966
277.000000	0.008260	0.011346	8.926966
278.000000	0.008396	0.001028	8.926966
279.000000	0.008565	0.018172	8.926966
280.000000	0.008739	0.021743	8.926966
281.000000	0.008918	0.021891	8.926966
282.000000	0.009121	0.019647	8.926966
283.000000	0.009353	0.025107	8.926966
284.000000	0.009604	0.013013	8.926966
285.000000	0.009860	0.025014	8.926966
286.000000	0.010111	0.025074	8.926966
287.000000	0.010365	0.019823	8.926966
288.000000	0.010630	0.016414	8.926966
289.000000	0.010902	0.019965	8.926966
290.000000	0.011176	0.035243	8.926966
291.000000	0.011461	0.011388	8.926966
292.000000	0.011775	0.007696	8.926966
293.000000	0.012107	0.024639	8.926966
294.000000	0.012428	0.038623	8.926966
295.000000	0.012736	0.014494	8.926966
296.000000	0.013059	-0.001018	8.926966
297.000000	0.013415	0.021121	8.926966
298.000000	0.013776	0.046693	8.926966
299.000000	0.014106	0.030054	8.926966
300.000000	0.014411	0.012673	8.926966
301.000000	0.014718	0.031587	8.926966
302.000000	0.015040	0.022783	8.926966
303.000000	0.015363	0.024711	8.926966
304.000000	0.015674	0.019716	8.926966
305.000000	0.015990	0.023109	8.926966
306.000000	0.016342	0.035039	8.926966
307.000000	0.016722	0.031291	8.926966
308.000000	0.017102	0.021097	8.926966
309.000000	0.017475	0.029863	8.926966
310.000000	0.017858	0.022711	8.926966
311.000000	0.018269	0.020993	8.926966
312.000000	0.018706	0.037974	8.926966
313.000000	0.019152	0.010452	8.926966
314.000000	0.019614	0.029613	8.926966
315.000000	0.020121	0.022441	8.926966
316.000000	0.020680	0.022449	8.926966
317.000000	0.021278	0.051476	8.926966
318.000000	0.021908	0.034164	8.926966
319.000000	0.022572	0.027352	8.926966
320.000000	0.023288	0.035730	8.926966
321.000000	0.024073	0.045688	8.926966
322.000000	0.024912	0.062939	8.926966
323.000000	0.025785	0.054351	8.926966
324.000000	0.026702	0.060953	8.926966
325.000000	0.027681	0.058992	8.926966
326.000000	0.028739	0.059152	8.926966
327.000000	0.029867	0.062450	8.926966
328.000000	0.031061	0.053675	8.926966
329.000000	0.032336	0.058442	8.926966
330.000000	0.033706	0.051561	8.926966
331.000000	0.035173	0.066917	8.926966
332.000000	0.036730	0.065245	8.926966
333.000000	0.038379	0.071722	8.926966
334.000000	0.040134	0.073172	8.926966
335.000000	0.042004	0.085091	8.926966
336.000000	0.043984	0.083110	8.926966
337.000000	0.046080	0.076531	8.926966
338.000000	0.048316	0.086129	8.926966
339.000000	0.050703	0.090935	8.926966
340.000000	0.053231	0.097648	8.926966
341.000000	0.055882	0.089029	8.926966
342.000000	0.058652	0.094024	8.926966
343.000000	0.061555	0.090253	8.926966
344.000000	0.064599	0.112316	8.926966
345.000000	0.067769	0.122297	8.926966
346.000000	0.071055	0.111904	8.926966
347.000000	0.074454	0.127046	8.926966
348.000000	0.077982	0.128546	8.926966
349.000000	0.081663	0.122901	8.926966
350.000000	0.085483	0.136567	8.926966
351.000000	0.089423	0.136246	8.926966
352.000000	0.093489	0.125748	8.926966
353.000000	0.097700	0.140543	8.926966
354.000000	0.102069	0.152243	8.926966
355.000000	0.106602	0.162055	8.926966
356.000000	0.111310	0.163571	8.926966
357.000000	0.116213	0.154522	8.926966
358.000000	0.121333	0.177741	8.926966
359.000000	0.126681	0.186073	8.926966
360.000000	0.132262	0.206066	8.926966
361.000000	0.138088	0.202534	8.926966
362.000000	0.144183	0.212280	8.926966
363.000000	0.150556	0.225116	8.926966
364.000000	0.157195	0.221369	8.926966
365.000000	0.164072	0.240178	8.926966
366.000000	0.171179	0.237777	8.926966
367.000000	0.178521	0.256019	8.926966
368.000000	0.186087	0.260473	8.926966
369.000000	0.193862	0.268564	8.926966
370.000000	0.201835	0.282385	8.926966
371.000000	0.210017	0.266424	8.926966
372.000000	0.218430	0.281199	8.926966
373.000000	0.227073	0.297923	8.926966
374.000000	0.235926	0.309594	8.926966
375.000000	0.244968	0.317772	8.926966
376.000000	0.254165	0.324353	8.926966
377.000000	0.263507	0.327104	8.926966
378.000000	0.272993	0.333422	8.926966
379.000000	0.282591	0.332860	8.926966
380.000000	0.292266	0.356939	8.926966
381.000000	0.302019	0.345968	8.926966
382.000000	0.311861	0.354223	8.926966
383.000000	0.321779	0.391207	8.926966
384.000000	0.331750	0.372051	8.926966
385.000000	0.341757	0.388990	8.926966
386.000000	0.351800	0.376481	8.926966
387.000000	0.361885	0.396658	8.926966
388.000000	0.371976	0.401291	8.926966
389.000000	0.382036	0.413119	8.926966
390.000000	0.392082	0.407518	8.926966
391.000000	0.402143	0.413654	8.926966
392.000000	0.412206	0.425780	8.926966
393.000000	0.422246	0.418230	8.926966
394.000000	0.432263	0.443744	8.926966
395.000000	0.442269	0.429699	8.926966
396.000000	0.452257	0.452861	8.926966
397.000000	0.462207	0.440795	8.926966
398.000000	0.472097	0.452564	8.926966
399.000000	0.481930	0.469241	8.926966
400.000000	0.491719	0.461845	8.926966
401.000000	0.501452	0.470324	8.926966
402.000000	0.511104	0.476274	8.926966
403.000000	0.520656	0.481398	8.926966
404.000000	0.530145	0.483042	8.926966
405.000000	0.539613	0.492773	8.926966
406.000000	0.549034	0.471511	8.926966
407.000000	0.558379	0.497144	8.926966
408.000000	0.567656	0.488559	8.926966
409.000000	0.576892	0.496430	8.926966
410.000000	0.586109	0.490942	8.926966
411.000000	0.595305	0.500882	8.926966
412.000000	0.604450	0.514233	8.926966
413.000000	0.613535	0.513972	8.926966
414.000000	0.622587	0.508328	8.926966
415.000000	0.631605	0.502963	8.926966
416.000000	0.640570	0.526637	8.926966
417.000000	0.649468	0.526287	8.926966
418.000000	0.658308	0.508888	8.926966
419.000000	0.667111	0.493151	8.926966
420.000000	0.675884	0.502902	8.926966
421.000000	0.684619	0.528425	8.926966
422.000000	0.693317	0.505834	8.926966
423.000000	0.701986	0.517630	8.926966
424.000000	0.710641	0.508572	8.926966
425.000000	0.719304	0.518262	8.926966
426.000000	0.727971	0.535151	8.926966
427.000000	0.736633	0.527896	8.926966
428.000000	0.745305	0.505221	8.926966
429.000000	0.754009	0.528901	8.926966
430.000000	0.762744	0.524788	8.926966
431.000000	0.771488	0.560492	8.926966
432.000000	0.780249	0.535890	8.926966
433.000000	0.789060	0.547501	8.926966
434.000000	0.797951	0.541745	8.926966
435.000000	0.806932	0.541491	8.926966
436.000000	0.815989	0.528981	8.926966
437.000000	0.825123	0.555652	8.926966
438.000000	0.834351	0.549915	8.926966
439.000000	0.843689	0.542444	8.926966
440.000000	0.853114	0.557823	8.926966
441.000000	0.862574	0.545610	8.926966
442.000000	0.872054	0.540312	8.926966
443.000000	0.881572	0.529255	8.926966
444.000000	0.891155	0.537536	8.926966
445.000000	0.900817	0.545721	8.926966
446.000000	0.910564	0.530024	8.926966
447.000000	0.920419	0.524457	8.926966
448.000000	0.930396	0.541456	8.926966
449.000000	0.940471	0.533903	8.926966
450.000000	0.950601	0.528357	8.926966
451.000000	0.960753	0.530063	8.926966
452.000000	0.970931	0.516016	8.926966
453.000000	0.981143	0.522597	8.926966
454.000000	0.991380	0.520257	8.926966
455.000000	1.001638	0.519964	8.926966
456.000000	1.011922	0.524940	8.926966
457.000000	1.022250	0.512535	8.926966
458.000000	1.032639	0.524050	8.926966
459.000000	1.043063	0.525707	8.926966
460.000000	1.053460	0.506602	8.926966
461.000000	1.063797	0.492922	8.926966
462.000000	1.074069	0.499298	8.926966
463.000000	1.084276	0.500379	8.926966
464.000000	1.094411	0.489694	8.926966
465.000000	1.104471	0.506668	8.926966
466.000000	1.114453	0.509623	8.926966
467.000000	1.124382	0.486879	8.926966
468.000000	1.134285	0.496436	8.926966
469.000000	1.144190	0.487312	8.926966
470.000000	1.154136	0.487270	8.926966
471.000000	1.164159	0.501949	8.926966
472.000000	1.174264	0.498139	8.926966
473.000000	1.184430	0.509971	8.926966
474.000000	1.194631	0.513110	8.926966
475.000000	1.204861	0.507399	8.926966
476.000000	1.215149	0.519163	8.926966
477.000000	1.225519	0.525322	8.926966
478.000000	1.235973	0.507828	8.926966
479.000000	1.246503	0.538650	8.926966
480.000000	1.257109	0.498653	8.926966
481.000000	1.267813	0.515321	8.926966
482.000000	1.278618	0.490866	8.926966
483.000000	1.289506	0.507955	8.926966
484.000000	1.300472	0.511233	8.926966
485.000000	1.311520	0.500535	8.926966
486.000000	1.322640	0.494999	8.926966
487.000000	1.333797	0.509789	8.926966
488.000000	1.344957	0.515100	8.926966
489.000000	1.356110	0.507829	8.926966
490.000000	1.367281	0.503897	8.926966
491.000000	1.378496	0.498569	8.926966
492.000000	1.389737	0.496095	8.926966
493.000000	1.400977	0.501149	8.926966
494.000000	1.412202	0.521273	8.926966
495.000000	1.423405	0.498656	8.926966
496.000000	1.434594	0.491332	8.926966
497.000000	1.445754	0.512962	8.926966
498.000000	1.456860	0.490734	8.926966
499.000000	1.467904	0.485156	8.926966
500.000000	1.478885	0.495022	8.926966
501.000000	1.489801	0.499803	8.926966
502.000000	1.500636	0.513134	8.926966
503.000000	1.511387	0.492257	8.926966
504.000000	1.522062	0.493657	8.926966
505.000000	1.532655	0.506868	8.926966
506.000000	1.543159	0.496210	8.926966
507.000000	1.553572	0.504549	8.926966
508.000000	1.563893	0.497330	8.926966
509.000000	1.574133	0.512460	8.926966
510.000000	1.584288	0.511883	8.926966
511.000000	1.594337	0.503380	8.926966
512.000000	1.604282	0.494488	8.926966
513.000000	1.614156	0.513049	8.926966
514.000000	1.623988	0.503652	8.926966
515.000000	1.633778	0.503384	8.926966
516.000000	1.643518	0.505011	8.926966
517.000000	1.653204	0.491269	8.926966
518.000000	1.662830	0.495960	8.926966
519.000000	1.672376	0.492090	8.926966
520.000000	1.681801	0.497346	8.926966
521.000000	1.691077	0.514202	8.926966
522.000000	1.700185	0.507133	8.926966
523.000000	1.709111	0.503091	8.926966
524.000000	1.717855	0.496100	8.926966
525.000000	1.726417	0.519972	8.926966
526.000000	1.734810	0.478400	8.926966
527.000000	1.743075	0.484569	8.926966
528.000000	1.751248	0.492765	8.926966
529.000000	1.759332	0.492581	8.926966
530.000000	1.767313	0.513009	8.926966
531.000000	1.775189	0.473483	8.926966
532.000000	1.782966	0.491995	8.926966
533.000000	1.790634	0.477927	8.926966
534.000000	1.798167	0.493209	8.926966
535.000000	1.805534	0.489871	8.926966
536.000000	1.812747	0.477675	8.926966
537.000000	1.819853	0.496062	8.926966
538.000000	1.826883	0.495948	8.926966
539.000000	1.833839	0.497518	8.926966
540.000000	1.840719	0.485170	8.926966
541.000000	1.847536	0.478038	8.926966
542.000000	1.854302	0.486181	8.926966
543.000000	1.861018	0.499796	8.926966
544.000000	1.867671	0.499423	8.926966
545.000000	1.874267	0.503175	8.926966
546.000000	1.880828	0.461720	8.926966
547.000000	1.887360	0.483839	8.926966
548.000000	1.893859	0.483564	8.926966
549.000000	1.900323	0.459398	8.926966
550.000000	1.906747	0.477941	8.926966
551.000000	1.913130	0.481195	8.926966
552.000000	1.919477	0.465617	8.926966
553.000000	1.925762	0.480841	8.926966
554.000000	1.931958	0.477364	8.926966
555.000000	1.938072	0.468636	8.926966
556.000000	1.944122	0.452629	8.926966
557.000000	1.950116	0.485070	8.926966
558.000000	1.956055	0.471325	8.926966
559.000000	1.961956	0.464252	8.926966
560.000000	1.967846	0.455763	8.926966
561.000000	1.973742	0.468688	8.926966
562.000000	1.979623	0.468843	8.926966
563.000000	1.985460	0.478886	8.926966
564.000000	1.991271	0.466895	8.926966
565.000000	1.997096	0.473475	8.926966
566.000000	2.002946	0.468132	8.926966
567.000000	2.008818	0.461091	8.926966
568.000000	2.014700	0.462605	8.926966
569.000000	2.020575	0.458987	8.926966
570.000000	2.026457	0.463860	8.926966
571.000000	2.032366	0.444566	8.926966
572.000000	2.038282	0.470249	8.926966
573.000000	2.044162	0.465043	8.926966
574.000000	2.050017	0.471835	8.926966
575.000000	2.055873	0.468067	8.926966
576.000000	2.061730	0.472954	8.926966
577.000000	2.067573	0.481407	8.926966
578.000000	2.073380	0.476243	8.926966
579.000000	2.079147	0.496664	8.926966
580.000000	2.084887	0.467133	8.926966
581.000000	2.090603	0.449887	8.926966
582.000000	2.096280	0.484090	8.926966
583.000000	2.101888	0.506379	8.926966
584.000000	2.107423	0.492338	8.926966
585.000000	2.112904	0.465051	8.926966
586.000000	2.118338	0.478505	8.926966
587.000000	2.123703	0.481578	8.926966
588.000000	2.128989	0.519929	8.926966
589.000000	2.134202	0.488513	8.926966
590.000000	2.139342	0.483329	8.926966
591.000000	2.144414	0.479719	8.926966
592.000000	2.149413	0.481391	8.926966
593.000000	2.154326	0.489730	8.926966
594.000000	2.159150	0.479525	8.926966
595.000000	2.163901	0.481038	8.926966
596.000000	2.168579	0.491007	8.926966
597.000000	2.173161	0.494444	8.926966
598.000000	2.177633	0.480878	8.926966
599.000000	2.182010	0.494436	8.926966
600.000000	2.186299	0.482428	8.926966
601.000000	2.190503	0.490877	8.926966
602.000000	2.194612	0.494289	8.926966
603.000000	2.198600	0.513000	8.926966
604.000000	2.202482	0.494229	8.926966
605.000000	2.206284	0.486911	8.926966
606.000000	2.209995	0.474939	8.926966
607.000000	2.213600	0.502523	8.926966
608.000000	2.217093	0.495615	8.926966
609.000000	2.220481	0.493663	8.926966
610.000000	2.223790	0.488486	8.926966
611.000000	2.227022	0.503914	8.926966
612.000000	2.230154	0.524548	8.926966
613.000000	2.233188	0.521193	8.926966
614.000000	2.236144	0.498625	8.926966
615.000000	2.239046	0.491687	8.926966
616.000000	2.241894	0.515429	8.926966
617.000000	2.244669	0.505501	8.926966
618.000000	2.247373	0.500145	8.926966
619.000000	2.250022	0.500075	8.926966
620.000000	2.252625	0.505234	8.926966
621.000000	2.255187	0.498186	8.926966
622.000000	2.257691	0.503424	8.926966
623.000000	2.260125	0.500349	8.926966
624.000000	2.262493	0.503398	8.926966
625.000000	2.264810	0.506831	8.926966
626.000000	2.267085	0.519051	8.926966
627.000000	2.269303	0.503336	8.926966
628.000000	2.271465	0.511919	8.926966
629.000000	2.273590	0.508355	8.926966
630.000000	2.275682	0.523439	8.926966
631.000000	2.277717	0.535713	8.926966
632.000000	2.279685	0.518629	8.926966
633.000000	2.281612	0.509865	8.926966
634.000000	2.283512	0.506276	8.926966
635.000000	2.285360	0.528844	8.926966
636.000000	2.287129	0.520369	8.926966
637.000000	2.288833	0.520417	8.926966
638.000000	2.290507	0.499636	8.926966
639.000000	2.292154	0.528499	8.926966
640.000000	2.293737	0.528531	8.926966
641.000000	2.295244	0.523860	8.926966
642.000000	2.296693	0.533974	8.926966
643.000000	2.298111	0.499806	8.926966
644.000000	2.299504	0.507852	8.926966
645.000000	2.300842	0.518365	8.926966
646.000000	2.302101	0.513580	8.926966
647.000000	2.303305	0.508443	8.926966
648.000000	2.304476	0.508199	8.926966
649.000000	2.305616	0.528723	8.926966
650.000000	2.306704	0.515052	8.926966
651.000000	2.307725	0.517032	8.926966
652.000000	2.308696	0.506798	8.926966
653.000000	2.309640	0.522321	8.926966
654.000000	2.310555	0.489628	8.926966
655.000000	2.311420	0.534195	8.926966
656.000000	2.312215	0.523929	8.926966
657.000000	2.312953	0.505069	8.926966
658.000000	2.313666	0.517067	8.926966
659.000000	2.314361	0.508523	8.926966
660.000000	2.315020	0.510104	8.926966
661.000000	2.315628	0.518853	8.926966
662.000000	2.316192	0.484639	8.926966
663.000000	2.316745	0.510346	8.926966
664.000000	2.317293	0.522074	8.926966
665.000000	2.317811	0.513813	8.926966
666.000000	2.318287	0.493339	8.926966
667.000000	2.318740	0.481378	8.926966
668.000000	2.319204	0.484729	8.926966
669.000000	2.319669	0.488052	8.926966
670.000000	2.320095	0.483187	8.926966
671.000000	2.320481	0.495466	8.926966
672.000000	2.320851	0.496831	8.926966
673.000000	2.321193	0.495222	8.926966
674.000000	2.321487	0.508827	8.926966
675.000000	2.321725	0.496907	8.926966
676.000000	2.321926	0.495584	8.926966
677.000000	2.322116	0.474796	8.926966
678.000000	2.322299	0.479810	8.926966
679.000000	2.322460	0.495282	8.926966
680.000000	2.322583	0.494122	8.926966
681.000000	2.322669	0.500737	8.926966
682.000000	2.322728	0.481830	8.926966
683.000000	2.322758	0.474837	8.926966
684.000000	2.322739	0.488863	8.926966
685.000000	2.322666	0.486979	8.926966
686.000000	2.322558	0.480057	8.926966
687.000000	2.322431	0.491902	8.926966
688.000000	2.322272	0.461309	8.926966
689.000000	2.322083	0.475315	8.926966
690.000000	2.321884	0.483977	8.926966
691.000000	2.321699	0.495801	8.926966
692.000000	2.321522	0.464621	8.926966
693.000000	2.321311	0.471716	8.926966
694.000000	2.321048	0.470315	8.926966
695.000000	2.320769	0.470411	8.926966
696.000000	2.320502	0.454872	8.926966
697.000000	2.320230	0.465224	8.926966
698.000000	2.319923	0.472071	8.926966
699.000000	2.319582	0.456710	8.926966
700.000000	2.319230	0.467004	8.926966
701.000000	2.318882	0.465264	8.926966
702.000000	2.318528	0.475654	8.926966
703.000000	2.318161	0.467212	8.926966
704.000000	2.317790	0.441206	8.926966
705.000000	2.317428	0.466842	8.926966
706.000000	2.317070	0.472196	8.926966
707.000000	2.316702	0.467059	8.926966
708.000000	2.316316	0.468881	8.926966
709.000000	2.315920	0.458996	8.926966
710.000000	2.315533	0.451528	8.926966
711.000000	2.315151	0.463681	8.926966
712.000000	2.314754	0.463572	8.926966
713.000000	2.314340	0.472535	8.926966
714.000000	2.313935	0.448457	8.926966
715.000000	2.313563	0.461987	8.926966
716.000000	2.313218	0.451896	8.926966
717.000000	2.312875	0.480929	8.926966
718.000000	2.312513	0.471024	8.926966
719.000000	2.312144	0.462515	8.926966
720.000000	2.311790	0.446879	8.926966
721.000000	2.311445	0.438439	8.926966
722.000000	2.311103	0.450567	8.926966
723.000000	2.310767	0.448950	8.926966
724.000000	2.310440	0.448631	8.926966
725.000000	2.310117	0.448413	8.926966
726.000000	2.309793	0.452170	8.926966
727.000000	2.309452	0.445351	8.926966
728.000000	2.309112	0.454303	8.926966
729.000000	2.308815	0.423477	8.926966
730.000000	2.308570	0.426509	8.926966
731.000000	2.308335	0.435218	8.926966
732.000000	2.308085	0.426650	8.926966
733.000000	2.307832	0.435467	8.926966
734.000000	2.307601	0.425280	8.926966
735.000000	2.307419	0.426702	8.926966
736.000000	2.307274	0.401066	8.926966
737.000000	2.307128	0.426809	8.926966
738.000000	2.306981	0.413532	8.926966
739.000000	2.306864	0.407831	8.926966
740.000000	2.306785	0.419626	8.926966
741.000000	2.306721	0.420006	8.926966
742.000000	2.306659	0.409881	8.926966
743.000000	2.306617	0.399386	8.926966
744.000000	2.306614	0.413398	8.926966
745.000000	2.306652	0.395932	8.926966
746.000000	2.306719	0.397582	8.926966
747.000000	2.306811	0.385888	8.926966
748.000000	2.306935	0.396380	8.926966
749.000000	2.307110	0.392823	8.926966
750.000000	2.307344	0.390751	8.926966
751.000000	2.307599	0.399586	8.926966
752.000000	2.307850	0.401312	8.926966
753.000000	2.308120	0.378730	8.926966
754.000000	2.308419	0.396105	8.926966
755.000000	2.308732	0.380594	8.926966
756.000000	2.309055	0.368733	8.926966
757.000000	2.309399	0.392714	8.926966
758.000000	2.309768	0.367073	8.926966
759.000000	2.310147	0.378918	8.926966
760.000000	2.310517	0.385858	8.926966
761.000000	2.310885	0.389348	8.926966
762.000000	2.311267	0.377235	8.926966
763.000000	2.311675	0.370205	8.926966
764.000000	2.312122	0.351508	8.926966
765.000000	2.312598	0.375628	8.926966
766.000000	2.313091	0.355102	8.926966
767.000000	2.313615	0.354720	8.926966
768.000000	2.314188	0.365097	8.926966
769.000000	2.314820	0.354753	8.926966
770.000000	2.315509	0.342752	8.926966
771.000000	2.316255	0.337629	8.926966
772.000000	2.317061	0.375022	8.926966
773.000000	2.317937	0.342459	8.926966
774.000000	2.318881	0.342211	8.926966
775.000000	2.319875	0.361330	8.926966
776.000000	2.320923	0.347746	8.926966
777.000000	2.322060	0.359552	8.926966
778.000000	2.323297	0.362346	8.926966
779.000000	2.324620	0.362677	8.926966
780.000000	2.326017	0.348962	8.926966
781.000000	2.327489	0.352163	8.926966
782.000000	2.329042	0.364205	8.926966
783.000000	2.330687	0.365606	8.926966
784.000000	2.332417	0.370711	8.926966
785.000000	2.334204	0.376062	8.926966
786.000000	2.336051	0.353488	8.926966
787.000000	2.337984	0.355224	8.926966
788.000000	2.340006	0.358511	8.926966
789.000000	2.342105	0.358439	8.926966
790.000000	2.344258	0.373777	8.926966
791.000000	2.346454	0.355134	8.926966
792.000000	2.348714	0.356679	8.926966
793.000000	2.351039	0.366642	8.926966
794.000000	2.353401	0.335798	8.926966
795.000000	2.355786	0.358206	8.926966
796.000000	2.358210	0.349433	8.926966
797.000000	2.360681	0.359757	8.926966
798.000000	2.363183	0.356131	8.926966
799.000000	2.365689	0.346087	8.926966
800.000000	2.368202	0.347673	8.926966
801.000000	2.370740	0.338948	8.926966
802.000000	2.373307	0.325145	8.926966
803.000000	2.375893	0.349201	8.926966
804.000000	2.378494	0.343914	8.926966
805.000000	2.381120	0.345381	8.926966
806.000000	2.383789	0.340342	8.926966
807.000000	2.386481	0.350360	8.926966
808.000000	2.389169	0.362223	8.926966
809.000000	2.391875	0.319590	8.926966
810.000000	2.394631	0.326322	8.926966
811.000000	2.397444	0.336341	8.926966
812.000000	2.400299	0.336339	8.926966
813.000000	2.403172	0.348281	8.926966
814.000000	2.406082	0.332638	8.926966
815.000000	2.409081	0.339115	8.926966
816.000000	2.412181	0.359614	8.926966
817.000000	2.415352	0.330441	8.926966
818.000000	2.418601	0.342183	8.926966
819.000000	2.421968	0.347336	8.926966
820.000000	2.425485	0.343458	8.926966
821.000000	2.429152	0.351734	8.926966
822.000000	2.432944	0.350084	8.926966
823.000000	2.436853	0.348260	8.926966
824.000000	2.440894	0.348008	8.926966
825.000000	2.445087	0.352667	8.926966
826.000000	2.449424	0.342273	8.926966
827.000000	2.453866	0.366072	8.926966
828.000000	2.458395	0.367832	8.926966
829.000000	2.463038	0.357289	8.926966
830.000000	2.467815	0.340109	8.926966
831.000000	2.472710	0.360251	8.926966
832.000000	2.477688	0.365391	8.926966
833.000000	2.482724	0.358410	8.926966
834.000000	2.487824	0.363591	8.926966
835.000000	2.492997	0.352951	8.926966
836.000000	2.498243	0.364741	8.926966
837.000000	2.503565	0.347412	8.926966
838.000000	2.508969	0.352371	8.926966
839.000000	2.514462	0.365824	8.926966
840.000000	2.520038	0.350198	8.926966
841.000000	2.525680	0.365529	8.926966
842.000000	2.531368	0.365377	8.926966
843.000000	2.537112	0.346270	8.926966
844.000000	2.542943	0.356266	8.926966
845.000000	2.548848	0.371458	8.926966
846.000000	2.554801	0.367890	8.926966
847.000000	2.560813	0.367703	8.926966
848.000000	2.566911	0.351869	8.926966
849.000000	2.573104	0.367171	8.926966
850.000000	2.579371	0.365520	8.926966
851.000000	2.585662	0.382370	8.926966
852.000000	2.591942	0.380899	8.926966
853.000000	2.598178	0.357990	8.926966
854.000000	2.604348	0.359695	8.926966
855.000000	2.610462	0.364933	8.926966
856.000000	2.616505	0.374988	8.926966
857.000000	2.622459	0.361554	8.926966
858.000000	2.628343	0.354265	8.926966
859.000000	2.634165	0.364379	8.926966
860.000000	2.639898	0.366306	8.926966
861.000000	2.645525	0.367976	8.926966
862.000000	2.651052	0.378063	8.926966
863.000000	2.656491	0.379668	8.926966
864.000000	2.661849	0.362489	8.926966
865.000000	2.667112	0.360610	8.926966
866.000000	2.672261	0.345368	8.926966
867.000000	2.677303	0.364167	8.926966
868.000000	2.682263	0.352334	8.926966
869.000000	2.687156	0.366809	8.926966
870.000000	2.691947	0.384133	8.926966
871.000000	2.696608	0.375816	8.926966
872.000000	2.701165	0.373945	8.926966
873.000000	2.705640	0.356653	8.926966
874.000000	2.710025	0.370231	8.926966
875.000000	2.714295	0.377083	8.926966
876.000000	2.718442	0.363505	8.926966
877.000000	2.722478	0.368757	8.926966
878.000000	2.726417	0.347866	8.926966
879.000000	2.730257	0.371800	8.926966
880.000000	2.733981	0.368555	8.926966
881.000000	2.737588	0.366759	8.926966
882.000000	2.741088	0.370089	8.926966
883.000000	2.744499	0.354649	8.926966
884.000000	2.747817	0.367926	8.926966
885.000000	2.751018	0.373305	8.926966
886.000000	2.754099	0.368284	8.926966
887.000000	2.757077	0.369707	8.926966
888.000000	2.759964	0.369864	8.926966
889.000000	2.762756	0.364433	8.926966
890.000000	2.765459	0.366131	8.926966
891.000000	2.768085	0.363277	8.926966
892.000000	2.770651	0.367789	8.926966
893.000000	2.773167	0.372838	8.926966
894.000000	2.775623	0.385196	8.926966
895.000000	2.778015	0.364268	8.926966
896.000000	2.780345	0.360972	8.926966
897.000000	2.782612	0.365730	8.926966
898.000000	2.784828	0.362416	8.926966
899.000000	2.786995	0.391598	8.926966
900.000000	2.789096	0.360766	8.926966
901.000000	2.791149	0.369239	8.926966
902.000000	2.793179	0.365416	8.926966
903.000000	2.795198	0.357096	8.926966
904.000000	2.797203	0.382722	8.926966
905.000000	2.799187	0.384681	8.926966
906.000000	2.801147	0.353470	8.926966
907.000000	2.803086	0.379086	8.926966
908.000000	2.804988	0.370561	8.926966
909.000000	2.806835	0.382466	8.926966
910.000000	2.808637	0.382597	8.926966
911.000000	2.810417	0.389343	8.926966
912.000000	2.812192	0.379230	8.926966
913.000000	2.813969	0.385935	8.926966
914.000000	2.815730	0.368659	8.926966
915.000000	2.817462	0.382288	8.926966
916.000000	2.819164	0.395997	8.926966
917.000000	2.820835	0.387293	8.926966
918.000000	2.822476	0.377032	8.926966
919.000000	2.824077	0.378932	8.926966
920.000000	2.825645	0.373785	8.926966
921.000000	2.827206	0.389320	8.926966
922.000000	2.828757	0.361518	8.926966
923.000000	2.830275	0.373578	8.926966
924.000000	2.831739	0.368499	8.926966
925.000000	2.833147	0.354913	8.926966
926.000000	2.834518	0.373892	8.926966
927.000000	2.835872	0.373705	8.926966
928.000000	2.837205	0.371834	8.926966
929.000000	2.838503	0.365155	8.926966
930.000000	2.839752	0.373576	8.926966
931.000000	2.840948	0.370459	8.926966
932.000000	2.842106	0.373729	8.926966
933.000000	2.843232	0.377072	8.926966
934.000000	2.844302	0.371822	8.926966
935.000000	2.845310	0.365339	8.926966
936.000000	2.846270	0.353329	8.926966
937.000000	2.847197	0.371999	8.926966
938.000000	2.848085	0.363297	8.926966
939.000000	2.848924	0.368614	8.926966
940.000000	2.849717	0.359967	8.926966
941.000000	2.850464	0.368739	8.926966
942.000000	2.851177	0.353148	8.926966
943.000000	2.851868	0.377241	8.926966
944.000000	2.852530	0.355263	8.926966
945.000000	2.853161	0.353552	8.926966
946.000000	2.853775	0.348247	8.926966
947.000000	2.854383	0.339418	8.926966
948.000000	2.854968	0.337466	8.926966
949.000000	2.855508	0.355289	8.926966
950.000000	2.856018	0.338223	8.926966
951.000000	2.856522	0.320977	8.926966
952.000000	2.857016	0.344870	8.926966
953.000000	2.857487	0.339766	8.926966
954.000000	2.857935	0.346620	8.926966
955.000000	2.858369	0.338069	8.926966
956.000000	2.858798	0.325943	8.926966
957.000000	2.859229	0.348249	8.926966
958.000000	2.859652	0.332776	8.926966
959.000000	2.860065	0.333030	8.926966
960.000000	2.860484	0.332777	8.926966
961.000000	2.860926	0.331213	8.926966
962.000000	2.861391	0.337839	8.926966
963.000000	2.861857	0.349879	8.926966
964.000000	2.862308	0.326063	8.926966
965.000000	2.862771	0.339899	8.926966
966.000000	2.863269	0.322392	8.926966
967.000000	2.863785	0.322470	8.926966
968.000000	2.864308	0.313971	8.926966
969.000000	2.864858	0.322687	8.926966
970.000000	2.865450	0.324155	8.926966
971.000000	2.866076	0.329367	8.926966
972.000000	2.866701	0.324229	8.926966
973.000000	2.867317	0.300533	8.926966
974.000000	2.867954	0.286412	8.926966
975.000000	2.868637	0.301933	8.926966
976.000000	2.869357	0.315535	8.926966
977.000000	2.870088	0.312136	8.926966
978.000000	2.870826	0.305318	8.926966
979.000000	2.871592	0.288084	8.926966
980.000000	2.872410	0.298291	8.926966
981.000000	2.873276	0.296502	8.926966
982.000000	2.874156	0.305101	8.926966
983.000000	2.875046	0.281082	8.926966
984.000000	2.875982	0.287918	8.926966
985.000000	2.876994	0.303226	8.926966
986.000000	2.878099	0.285906	8.926966
987.000000	2.879293	0.297792	8.926966
988.000000	2.880554	0.290856	8.926966
989.000000	2.881882	0.289378	8.926966
990.000000	2.883293	0.275329	8.926966
991.000000	2.884795	0.288895	8.926966
992.000000	2.886379	0.300883	8.926966
993.000000	2.888029	0.304490	8.926966
994.000000	2.889730	0.297597	8.926966
995.000000	2.891492	0.282131	8.926966
996.000000	2.893346	0.268229	8.926966
997.000000	2.895293	0.295428	8.926966
998.000000	2.897298	0.288416	8.926966
999.000000	2.899341	0.269938	8.926966
1000.000000	2.901443	0.266250	8.926966
1001.000000	2.903618	0.279940	8.926966
1002.000000	2.905852	0.283097	8.926966
1003.000000	2.908115	0.271105	8.926966
1004.000000	2.910398	0.273143	8.926966
1005.000000	2.912712	0.278083	8.926966
1006.000000	2.915076	0.270955	8.926966
1007.000000	2.917474	0.262438	8.926966
1008.000000	2.919884	0.264245	8.926966
1009.000000	2.922300	0.257360	8.926966
1010.000000	2.924734	0.265806	8.926966
1011.000000	2.927201	0.233150	8.926966
1012.000000	2.929700	0.256865	8.926966
1013.000000	2.932211	0.269117	8.926966
1014.000000	2.934712	0.275907	8.926966
1015.000000	2.937211	0.260672	8.926966
1016.000000	2.939728	0.234593	8.926966
1017.000000	2.942259	0.253460	8.926966
1018.000000	2.944778	0.243028	8.926966
1019.000000	2.947276	0.231113	8.926966
1020.000000	2.949774	0.248042	8.926966
1021.000000	2.952289	0.232486	8.926966
1022.000000	2.954810	0.251302	8.926966
1023.000000	2.957333	0.241026	8.926966
1024.000000	2.959879	0.234212	8.926966
1025.000000	2.962465	0.235660	8.926966
1026.000000	2.965099	0.233679	8.926966
1027.000000	2.967790	0.237231	8.926966
1028.000000	2.970542	0.237190	8.926966
1029.000000	2.973366	0.221546	8.926966
1030.000000	2.976283	0.209561	8.926966
1031.000000	2.979302	0.200413	8.926966
1032.000000	2.982410	0.221347	8.926966
1033.000000	2.985593	0.212948	8.926966
1034.000000	2.988859	0.225020	8.926966
1035.000000	2.992226	0.212526	8.926966
1036.000000	2.995707	0.214170	8.926966
1037.000000	2.999320	0.191744	8.926966
1038.000000	3.003056	0.210344	8.926966
1039.000000	3.006887	0.183184	8.926966
1040.000000	3.010821	0.172466	8.926966
1041.000000	3.014873	0.180916	8.926966
1042.000000	3.019034	0.192702	8.926966
1043.000000	3.023288	0.179207	8.926966
1044.000000	3.027638	0.194538	8.926966
1045.000000	3.032105	0.151138	8.926966
1046.000000	3.036696	0.164858	8.926966
1047.000000	3.041405	0.168410	8.926966
1048.000000	3.046240	0.156000	8.926966
1049.000000	3.051225	0.161322	8.926966
1050.000000	3.056376	0.150773	8.926966
1051.000000	3.061686	0.145330	8.926966
1052.000000	3.067146	0.153855	8.926966
1053.000000	3.072749	0.145108	8.926966
1054.000000	3.078491	0.138023	8.926966
1055.000000	3.084370	0.148063	8.926966
1056.000000	3.090400	0.152891	8.926966
1057.000000	3.096603	0.147524	8.926966
1058.000000	3.102988	0.135596	8.926966
1059.000000	3.109553	0.135179	8.926966
1060.000000	3.116300	0.146819	8.926966
1061.000000	3.123209	0.141669	8.926966
1062.000000	3.130250	0.136336	8.926966
1063.000000	3.137399	0.134591	8.926966
1064.000000	3.144647	0.125755	8.926966
1065.000000	3.151996	0.110077	8.926966
1066.000000	3.159419	0.144203	8.926966
1067.000000	3.166863	0.127042	8.926966
1068.000000	3.174297	0.130501	8.926966
1069.000000	3.181729	0.123596	8.926966
1070.000000	3.189173	0.111188	8.926966
1071.000000	3.196609	0.124845	8.926966
1072.000000	3.204013	0.123144	8.926966
1073.000000	3.211400	0.112870	8.926966
1074.000000	3.218791	0.114128	8.926966
1075.000000	3.226176	0.114263	8.926966
1076.000000	3.233519	0.125864	8.926966
1077.000000	3.240789	0.119222	8.926966
1078.000000	3.247986	0.103699	8.926966
1079.000000	3.255136	0.093395	8.926966
1080.000000	3.262244	0.124023	8.926966
1081.000000	3.269260	0.118611	8.926966
1082.000000	3.276157	0.110190	8.926966
1083.000000	3.282953	0.104963	8.926966
1084.000000	3.289675	0.084406	8.926966
1085.000000	3.296338	0.084069	8.926966
1086.000000	3.302915	0.101200	8.926966
1087.000000	3.309381	0.106427	8.926966
1088.000000	3.315739	0.080614	8.926966
1089.000000	3.321999	0.070143	8.926966
1090.000000	3.328168	0.106037	8.926966
1091.000000	3.334255	0.099135	8.926966
1092.000000	3.340262	0.092297	8.926966
1093.000000	3.346190	0.090388	8.926966
1094.000000	3.352040	0.095485	8.926966
1095.000000	3.357806	0.090055	8.926966
1096.000000	3.363473	0.095307	8.926966
1097.000000	3.369023	0.084993	8.926966
1098.000000	3.374465	0.089984	8.926966
1099.000000	3.379831	0.077784	8.926966
1100.000000	3.385131	0.072636	8.926966
1101.000000	3.390349	0.084683	8.926966
1102.000000	3.395475	0.089752	8.926966
1103.000000	3.400490	0.092960	8.926966
1104.000000	3.405385	0.070843	8.926966
1105.000000	3.410193	0.085904	8.926966
1106.000000	3.414926	0.070600	8.926966
1107.000000	3.419568	0.099553	8.926966
1108.000000	3.424128	0.082450	8.926966
1109.000000	3.428628	0.077178	8.926966
1110.000000	3.433074	0.075056	8.926966
1111.000000	3.437456	0.090526	8.926966
1112.000000	3.441760	0.068257	8.926966
1113.000000	3.446000	0.072041	8.926966
1114.000000	3.450205	0.075015	8.926966
1115.000000	3.454380	0.085166	8.926966
1116.000000	3.458507	0.079822	8.926966
1117.000000	3.462560	0.079883	8.926966
1118.000000	3.466539	0.080042	8.926966
1119.000000	3.470461	0.061086	8.926966
1120.000000	3.474354	0.076200	8.926966
1121.000000	3.478227	0.084928	8.926966
1122.000000	3.482065	0.079625	8.926966
1123.000000	3.485849	0.074519	8.926966
1124.000000	3.489590	0.089906	8.926966
1125.000000	3.493301	0.072417	8.926966
1126.000000	3.496975	0.074212	8.926966
1127.000000	3.500599	0.081237	8.926966
1128.000000	3.504173	0.075889	8.926966
1129.000000	3.507710	0.048529	8.926966
1130.000000	3.511209	0.070460	8.926966
1131.000000	3.514650	0.077714	8.926966
1132.000000	3.518019	0.097976	8.926966
1133.000000	3.521328	0.079075	8.926966
1134.000000	3.524595	0.068681	8.926966
1135.000000	3.527831	0.088968	8.926966
1136.000000	3.531030	0.075422	8.926966
1137.000000	3.534182	0.090953	8.926966
1138.000000	3.537285	0.092741	8.926966
1139.000000	3.540346	0.073609	8.926966
1140.000000	3.543369	0.086872	8.926966
1141.000000	3.546333	0.102551	8.926966
1142.000000	3.549225	0.106323	8.926966
1143.000000	3.552058	0.101144	8.926966
1144.000000	3.554839	0.092247	8.926966
1145.000000	3.557569	0.095363	8.926966
1146.000000	3.560244	0.092273	8.926966
1147.000000	3.562850	0.095849	8.926966
1148.000000	3.565376	0.100884	8.926966
1149.000000	3.567831	0.097342	8.926966
1150.000000	3.570234	0.098783	8.926966
1151.000000	3.572587	0.097175	8.926966
1152.000000	3.574878	0.100533	8.926966
1153.000000	3.577100	0.095513	8.926966
1154.000000	3.579264	0.100585	8.926966
1155.000000	3.581380	0.098922	8.926966
1156.000000	3.583448	0.114214	8.926966
1157.000000	3.585444	0.112539	8.926966
1158.000000	3.587355	0.107282	8.926966
1159.000000	3.589193	0.104081	8.926966
1160.000000	3.590979	0.112388	8.926966
1161.000000	3.592715	0.102136	8.926966
1162.000000	3.594394	0.121191	8.926966
1163.000000	3.596007	0.102111	8.926966
1164.000000	3.597557	0.112867	8.926966
1165.000000	3.599065	0.091804	8.926966
1166.000000	3.600539	0.114129	8.926966
1167.000000	3.601960	0.122502	8.926966
1168.000000	3.603313	0.122646	8.926966
1169.000000	3.604605	0.112669	8.926966
1170.000000	3.605867	0.092197	8.926966
1171.000000	3.607129	0.124524	8.926966
1172.000000	3.608387	0.112295	8.926966
1173.000000	3.609623	0.102257	8.926966
1174.000000	3.610826	0.110809	8.926966
1175.000000	3.612000	0.109157	8.926966
1176.000000	3.613167	0.104016	8.926966
1177.000000	3.614346	0.110587	8.926966
1178.000000	3.615524	0.119258	8.926966
1179.000000	3.616686	0.121236	8.926966
1180.000000	3.617853	0.134824	8.926966
1181.000000	3.619041	0.107220	8.926966
1182.000000	3.620248	0.089941	8.926966
1183.000000	3.621461	0.119356	8.926966
1184.000000	3.622670	0.108896	8.926966
1185.000000	3.623881	0.115661	8.926966
1186.000000	3.625123	0.110746	8.926966
1187.000000	3.626398	0.110202	8.926966
1188.000000	3.627674	0.108446	8.926966
1189.000000	3.628949	0.100153	8.926966
1190.000000	3.630255	0.110426	8.926966
1191.000000	3.631619	0.098293	8.926966
1192.000000	3.633069	0.113690	8.926966
1193.000000	3.634609	0.104996	8.926966
1194.000000	3.636230	0.089640	8.926966
1195.000000	3.637941	0.091147	8.926966
1196.000000	3.639743	0.091004	8.926966
1197.000000	3.641620	0.097846	8.926966
1198.000000	3.643559	0.099441	8.926966
1199.000000	3.645570	0.089343	8.926966
1200.000000	3.647689	0.071918	8.926966
1201.000000	3.649933	0.080417	8.926966
1202.000000	3.652283	0.104215	8.926966
1203.000000	3.654727	0.095730	8.926966
1204.000000	3.657263	0.090541	8.926966
1205.000000	3.659896	0.086750	8.926966
1206.000000	3.662639	0.088569	8.926966
1207.000000	3.665493	0.097043	8.926966
1208.000000	3.668433	0.112514	8.926966
1209.000000	3.671447	0.083204	8.926966
1210.000000	3.674538	0.081101	8.926966
1211.000000	3.677701	0.095035	8.926966
1212.000000	3.680933	0.084461	8.926966
1213.000000	3.684233	0.094944	8.926966
1214.000000	3.687596	0.067505	8.926966
1215.000000	3.691035	0.067180	8.926966
1216.000000	3.694549	0.068828	8.926966
1217.000000	3.698111	0.082560	8.926966
1218.000000	3.701711	0.065421	8.926966
1219.000000	3.705371	0.048354	8.926966
1220.000000	3.709089	0.087404	8.926966
1221.000000	3.712846	0.070302	8.926966
1222.000000	3.716638	0.061845	8.926966
1223.000000	3.720466	0.069942	8.926966
1224.000000	3.724342	0.056191	8.926966
1225.000000	3.728262	0.068214	8.926966
1226.000000	3.732184	0.062907	8.926966
1227.000000	3.736080	0.073125	8.926966
1228.000000	3.739979	0.033901	8.926966
1229.000000	3.743923	0.040504	8.926966
1230.000000	3.747913	0.055830	8.926966
1231.000000	3.751913	0.059155	8.926966
1232.000000	3.755900	0.050513	8.926966
1233.000000	3.759894	0.033802	8.926966
1234.000000	3.763909	0.033189	8.926966
1235.000000	3.767918	0.057135	8.926966
1236.000000	3.771904	0.041690	8.926966
1237.000000	3.775861	0.041788	8.926966
1238.000000	3.779803	0.026438	8.926966
1239.000000	3.783754	0.027831	8.926966
1240.000000	3.787704	0.034433	8.926966
1241.000000	3.791616	0.049791	8.926966
1242.000000	3.795478	0.034480	8.926966
1243.000000	3.799322	0.020809	8.926966
1244.000000	3.803174	0.003574	8.926966
1245.000000	3.807011	0.016917	8.926966
1246.000000	3.810818	0.006734	8.926966
1247.000000	3.814609	0.010214	8.926966
1248.000000	3.818388	0.020451	8.926966
1249.000000	3.822127	0.008389	8.926966
1250.000000	3.825824	0.012019	8.926966
1251.000000	3.829498	0.004900	8.926966
1252.000000	3.833154	0.006598	8.926966
1253.000000	3.836791	0.004763	8.926966
1254.000000	3.840404	-0.002206	8.926966
1255.000000	3.843973	-0.003973	8.926966
1256.000000	3.847482	-0.010734	8.926966
1257.000000	3.850947	-0.019424	8.926966
1258.000000	3.854387	-0.011239	8.926966
1259.000000	3.857795	-0.017885	8.926966
1260.000000	3.861156	-0.016130	8.926966
1261.000000	3.864464	-0.007418	8.926966
1262.000000	3.867732	-0.017721	8.926966
1263.000000	3.870969	-0.038424	8.926966
1264.000000	3.874174	-0.023144	8.926966
1265.000000	3.877336	-0.028360	8.926966
1266.000000	3.880441	-0.040325	8.926966
1267.000000	3.883490	-0.055685	8.926966
1268.000000	3.886498	-0.050767	8.926966
1269.000000	3.889467	-0.054014	8.926966
1270.000000	3.892399	-0.054023	8.926966
1271.000000	3.895293	-0.059287	8.926966
1272.000000	3.898150	-0.059204	8.926966
1273.000000	3.900975	-0.048980	8.926966
1274.000000	3.903764	-0.057670	8.926966
1275.000000	3.906493	-0.064646	8.926966
1276.000000	3.909148	-0.066226	8.926966
1277.000000	3.911738	-0.059365	8.926966
1278.000000	3.914286	-0.062584	8.926966
1279.000000	3.916816	-0.071438	8.926966
1280.000000	3.919322	-0.071658	8.926966
1281.000000	3.921778	-0.059577	8.926966
1282.000000	3.924187	-0.076610	8.926966
1283.000000	3.926577	-0.083420	8.926966
1284.000000	3.928968	-0.088713	8.926966
1285.000000	3.931351	-0.071886	8.926966
1286.000000	3.933719	-0.070013	8.926966
1287.000000	3.936067	-0.085358	8.926966
1288.000000	3.938399	-0.078636	8.926966
1289.000000	3.940721	-0.097432	8.926966
1290.000000	3.943028	-0.109750	8.926966
1291.000000	3.945310	-0.105910	8.926966
1292.000000	3.947558	-0.099158	8.926966
1293.000000	3.949780	-0.116350	8.926966
1294.000000	3.952007	-0.106105	8.926966
1295.000000	3.954245	-0.085813	8.926966
1296.000000	3.956476	-0.114799	8.926966
1297.000000	3.958702	-0.097494	8.926966
1298.000000	3.960936	-0.123117	8.926966
1299.000000	3.963175	-0.116693	8.926966
1300.000000	3.965403	-0.116670	8.926966
1301.000000	3.967611	-0.116421	8.926966
1302.000000	3.969798	-0.116359	8.926966
1303.000000	3.971975	-0.130288	8.926966
1304.000000	3.974159	-0.124901	8.926966
1305.000000	3.976335	-0.120241	8.926966
1306.000000	3.978474	-0.129906	8.926966
1307.000000	3.980573	-0.143574	8.926966
1308.000000	3.982643	-0.161411	8.926966
1309.000000	3.984683	-0.144009	8.926966
1310.000000	3.986684	-0.140634	8.926966
1311.000000	3.988648	-0.154160	8.926966
1312.000000	3.990587	-0.159295	8.926966
1313.000000	3.992517	-0.147314	8.926966
1314.000000	3.994432	-0.174537	8.926966
1315.000000	3.996309	-0.157897	8.926966
1316.000000	3.998128	-0.155674	8.926966
1317.000000	3.999910	-0.166050	8.926966
1318.000000	4.001688	-0.152712	8.926966
1319.000000	4.003461	-0.152604	8.926966
1320.000000	4.005209	-0.149043	8.926966
1321.000000	4.006934	-0.161160	8.926966
1322.000000	4.008648	-0.190333	8.926966
1323.000000	4.010368	-0.170037	8.926966
1324.000000	4.012092	-0.179945	8.926966
1325.000000	4.013802	-0.185196	8.926966
1326.000000	4.015519	-0.180028	8.926966
1327.000000	4.017294	-0.187149	8.926966
1328.000000	4.019136	-0.177126	8.926966
1329.000000	4.021006	-0.183850	8.926966
1330.000000	4.022903	-0.187204	8.926966
1331.000000	4.024862	-0.194273	8.926966
1332.000000	4.026916	-0.189371	8.926966
1333.000000	4.029076	-0.184507	8.926966
1334.000000	4.031330	-0.189507	8.926966
1335.000000	4.033685	-0.162010	8.926966
1336.000000	4.036159	-0.193214	8.926966
1337.000000	4.038768	-0.198453	8.926966
1338.000000	4.041521	-0.179643	8.926966
1339.000000	4.044413	-0.176591	8.926966
1340.000000	4.047439	-0.178310	8.926966
1341.000000	4.050610	-0.169780	8.926966
1342.000000	4.053944	-0.175059	8.926966
1343.000000	4.057447	-0.168441	8.926966
1344.000000	4.061126	-0.168390	8.926966
1345.000000	4.064990	-0.178710	8.926966
1346.000000	4.069023	-0.167145	8.926966
1347.000000	4.073212	-0.189540	8.926966
1348.000000	4.077545	-0.150581	8.926966
1349.000000	4.081996	-0.171044	8.926966
1350.000000	4.086563	-0.184755	8.926966
1351.000000	4.091268	-0.191840	8.926966
1352.000000	4.096128	-0.173271	8.926966
1353.000000	4.101108	-0.151479	8.926966
1354.000000	4.106174	-0.183642	8.926966
1355.000000	4.111338	-0.152853	8.926966
1356.000000	4.116612	-0.173893	8.926966
1357.000000	4.121991	-0.168632	8.926966
1358.000000	4.127458	-0.179190	8.926966
1359.000000	4.133002	-0.151673	8.926966
1360.000000	4.138618	-0.149982	8.926966
1361.000000	4.144312	-0.177646	8.926966
1362.000000	4.150069	-0.157426	8.926966
1363.000000	4.155861	-0.155392	8.926966
1364.000000	4.161685	-0.167694	8.926966
1365.000000	4.167559	-0.164824	8.926966
1366.000000	4.173490	-0.168354	8.926966
1367.000000	4.179452	-0.173496	8.926966
1368.000000	4.185413	-0.144423	8.926966
1369.000000	4.191372	-0.156548	8.926966
1370.000000	4.197351	-0.166845	8.926966
1371.000000	4.203359	-0.162158	8.926966
1372.000000	4.209401	-0.165685	8.926966
1373.000000	4.215480	-0.160418	8.926966
1374.000000	4.221595	-0.157402	8.926966
1375.000000	4.227750	-0.164611	8.926966
1376.000000	4.233954	-0.166524	8.926966
1377.000000	4.240198	-0.171581	8.926966
1378.000000	4.246458	-0.166489	8.926966
1379.000000	4.252742	-0.159697	8.926966
1380.000000	4.259061	-0.159878	8.926966
1381.000000	4.265387	-0.145038	8.926966
1382.000000	4.271675	-0.139516	8.926966
1383.000000	4.277903	-0.173750	8.926966
1384.000000	4.284078	-0.160177	8.926966
1385.000000	4.290213	-0.156983	8.926966
1386.000000	4.296299	-0.146987	8.926966
1387.000000	4.302316	-0.152117	8.926966
1388.000000	4.308253	-0.150326	8.926966
1389.000000	4.314116	-0.147227	8.926966
1390.000000	4.319923	-0.152551	8.926966
1391.000000	4.325676	-0.135825	8.926966
1392.000000	4.331372	-0.146004	8.926966
1393.000000	4.337025	-0.158006	8.926966
1394.000000	4.342633	-0.163090	8.926966
1395.000000	4.348207	-0.164943	8.926966
1396.000000	4.353756	-0.153472	8.926966
1397.000000	4.359259	-0.139714	8.926966
1398.000000	4.364688	-0.146433	8.926966
1399.000000	4.370056	-0.160456	8.926966
1400.000000	4.375389	-0.160405	8.926966
1401.000000	4.380694	-0.152182	8.926966
1402.000000	4.385964	-0.129722	8.926966
1403.000000	4.391192	-0.153726	8.926966
1404.000000	4.396382	-0.142061	8.926966
1405.000000	4.401537	-0.145540	8.926966
1406.000000	4.406662	-0.143781	8.926966
1407.000000	4.411746	-0.135033	8.926966
1408.000000	4.416772	-0.150899	8.926966
1409.000000	4.421744	-0.156096	8.926966
1410.000000	4.426692	-0.135694	8.926966
1411.000000	4.431625	-0.142900	8.926966
1412.000000	4.436514	-0.137747	8.926966
1413.000000	4.441345	-0.140903	8.926966
1414.000000	4.446141	-0.171986	8.926966
1415.000000	4.450931	-0.137787	8.926966
1416.000000	4.455719	-0.151819	8.926966
1417.000000	4.460474	-0.131110	8.926966
1418.000000	4.465158	-0.134443	8.926966
1419.000000	4.469773	-0.141472	8.926966
1420.000000	4.474348	-0.150114	8.926966
1421.000000	4.478894	-0.141812	8.926966
1422.000000	4.483411	-0.141984	8.926966
1423.000000	4.487892	-0.133426	8.926966
1424.000000	4.492339	-0.164191	8.926966
1425.000000	4.496772	-0.150523	8.926966
1426.000000	4.501198	-0.142434	8.926966
1427.000000	4.505589	-0.138941	8.926966
1428.000000	4.509933	-0.145810	8.926966
1429.000000	4.514249	-0.150905	8.926966
1430.000000	4.518553	-0.163252	8.926966
1431.000000	4.522842	-0.141208	8.926966
1432.000000	4.527096	-0.161739	8.926966
1433.000000	4.531314	-0.149609	8.926966
1434.000000	4.535525	-0.159990	8.926966
1435.000000	4.539751	-0.165381	8.926966
1436.000000	4.543976	-0.153617	8.926966
1437.000000	4.548182	-0.153515	8.926966
1438.000000	4.552382	-0.163803	8.926966
1439.000000	4.556605	-0.164025	8.926966
1440.000000	4.560872	-0.169237	8.926966
1441.000000	4.565178	-0.157590	8.926966
1442.000000	4.569520	-0.159108	8.926966
1443.000000	4.573901	-0.166430	8.926966
1444.000000	4.578309	-0.166760	8.926966
1445.000000	4.582738	-0.168487	8.926966
1446.000000	4.587202	-0.156247	8.926966
1447.000000	4.591709	-0.163395	8.926966
1448.000000	4.596272	-0.166940	8.926966
1449.000000	4.600909	-0.169091	8.926966
1450.000000	4.605634	-0.144889	8.926966
1451.000000	4.610437	-0.170776	8.926966
1452.000000	4.615287	-0.175915	8.926966
1453.000000	4.620183	-0.170918	8.926966
1454.000000	4.625148	-0.157590	8.926966
1455.000000	4.630172	-0.162755	8.926966
1456.000000	4.635218	-0.159214	8.926966
1457.000000	4.640283	-0.171413	8.926966
1458.000000	4.645398	-0.185342	8.926966
1459.000000	4.650569	-0.168424	8.926966
1460.000000	4.655772	-0.178963	8.926966
1461.000000	4.660989	-0.177011	8.926966
1462.000000	4.666215	-0.156351	8.926966
1463.000000	4.671456	-0.196183	8.926966
1464.000000	4.676716	-0.169149	8.926966
1465.000000	4.682002	-0.191120	8.926966
1466.000000	4.687298	-0.186131	8.926966
1467.000000	4.692591	-0.203158	8.926966
1468.000000	4.697893	-0.191565	8.926966
1469.000000	4.703209	-0.183298	8.926966
1470.000000	4.708524	-0.201934	8.926966
1471.000000	4.713826	-0.198495	8.926966
1472.000000	4.719126	-0.205525	8.926966
1473.000000	4.724425	-0.193601	8.926966
1474.000000	4.729719	-0.197358	8.926966
1475.000000	4.735000	-0.202543	8.926966
1476.000000	4.740253	-0.204474	8.926966
1477.000000	4.745494	-0.214839	8.926966
1478.000000	4.750756	-0.197694	8.926966
1479.000000	4.756045	-0.202939	8.926966
1480.000000	4.761335	-0.199677	8.926966
1481.000000	4.766584	-0.191144	8.926966
1482.000000	4.771780	-0.193199	8.926966
1483.000000	4.776966	-0.210450	8.926966
1484.000000	4.782170	-0.203661	8.926966
1485.000000	4.787365	-0.219083	8.926966
1486.000000	4.792516	-0.201945	8.926966
1487.000000	4.797628	-0.212116	8.926966
1488.000000	4.802726	-0.215944	8.926966
1489.000000	4.807806	-0.217925	8.926966
1490.000000	4.812842	-0.200802	8.926966
1491.000000	4.817818	-0.203960	8.926966
1492.000000	4.822741	-0.212858	8.926966
1493.000000	4.827645	-0.218129	8.926966
1494.000000	4.832545	-0.216740	8.926966
1495.000000	4.837421	-0.209707	8.926966
1496.000000	4.842257	-0.218196	8.926966
1497.000000	4.847050	-0.225138	8.926966
1498.000000	4.851790	-0.206654	8.926966
1499.000000	4.856479	-0.208564	8.926966
1500.000000	4.861112	-0.215413	8.926966
1501.000000	4.865676	-0.215204	8.926966
1502.000000	4.870187	-0.211988	8.926966
1503.000000	4.874665	-0.207135	8.926966
1504.000000	4.879096	-0.207395	8.926966
1505.000000	4.883443	-0.212362	8.926966
1506.000000	4.887695	-0.203710	8.926966
1507.000000	4.891880	-0.219344	8.926966
1508.000000	4.896009	-0.212643	8.926966
1509.000000	4.900073	-0.209503	8.926966
1510.000000	4.904062	-0.207462	8.926966
1511.000000	4.907975	-0.214424	8.926966
1512.000000	4.911817	-0.207636	8.926966
1513.000000	4.915598	-0.226867	8.926966
1514.000000	4.919317	-0.214877	8.926966
1515.000000	4.922957	-0.204617	8.926966
1516.000000	4.926504	-0.211154	8.926966
1517.000000	4.929977	-0.204565	8.926966
1518.000000	4.933402	-0.225424	8.926966
1519.000000	4.936785	-0.197979	8.926966
1520.000000	4.940112	-0.204793	8.926966
1521.000000	4.943365	-0.198176	8.926966
1522.000000	4.946551	-0.204994	8.926966
1523.000000	4.949696	-0.191765	8.926966
1524.000000	4.952806	-0.186833	8.926966
1525.000000	4.955874	-0.184564	8.926966
1526.000000	4.958886	-0.215526	8.926966
1527.000000	4.961841	-0.203593	8.926966
1528.000000	4.964752	-0.193468	8.926966
1529.000000	4.967616	-0.171317	8.926966
1530.000000	4.970421	-0.188498	8.926966
1531.000000	4.973167	-0.202143	8.926966
1532.000000	4.975874	-0.190201	8.926966
1533.000000	4.978552	-0.193696	8.926966
1534.000000	4.981174	-0.190332	8.926966
1535.000000	4.983731	-0.180083	8.926966
1536.000000	4.986240	-0.192020	8.926966
1537.000000	4.988721	-0.200824	8.926966
1538.000000	4.991162	-0.187292	8.926966
1539.000000	4.993543	-0.183648	8.926966
1540.000000	4.995875	-0.163190	8.926966
1541.000000	4.998182	-0.187174	8.926966
1542.000000	5.000470	-0.177352	8.926966
1543.000000	5.002732	-0.194230	8.926966
1544.000000	5.004964	-0.161554	8.926966
1545.000000	5.007164	-0.197706	8.926966
1546.000000	5.009350	-0.199595	8.926966
1547.000000	5.011541	-0.184387	8.926966
1548.000000	5.013716	-0.187901	8.926966
1549.000000	5.015847	-0.177319	8.926966
1550.000000	5.017939	-0.177395	8.926966
1551.000000	5.020020	-0.175642	8.926966
1552.000000	5.022104	-0.186300	8.926966
1553.000000	5.024192	-0.174068	8.926966
1554.000000	5.026270	-0.169057	8.926966
1555.000000	5.028333	-0.196409	8.926966
1556.000000	5.030387	-0.196284	8.926966
1557.000000	5.032438	-0.182910	8.926966
1558.000000	5.034474	-0.186217	8.926966
1559.000000	5.036476	-0.184309	8.926966
1560.000000	5.038448	-0.184444	8.926966
1561.000000	5.040408	-0.187845	8.926966
1562.000000	5.042371	-0.189853	8.926966
1563.000000	5.044326	-0.203514	8.926966
1564.000000	5.046240	-0.194818	8.926966
1565.000000	5.048096	-0.196461	8.926966
1566.000000	5.049903	-0.196621	8.926966
1567.000000	5.051674	-0.208641	8.926966
1568.000000	5.053397	-0.193173	8.926966
1569.000000	5.055042	-0.187907	8.926966
1570.000000	5.056615	-0.215221	8.926966
1571.000000	5.058152	-0.206928	8.926966
1572.000000	5.059669	-0.203423	8.926966
1573.000000	5.061161	-0.201757	8.926966
1574.000000	5.062626	-0.189741	8.926966
1575.000000	5.064074	-0.199881	8.926966
1576.000000	5.065525	-0.211868	8.926966
1577.000000	5.066989	-0.205255	8.926966
1578.000000	5.068452	-0.219065	8.926966
1579.000000	5.069899	-0.208617	8.926966
1580.000000	5.071347	-0.222304	8.926966
1581.000000	5.072816	-0.213914	8.926966
1582.000000	5.074312	-0.214082	8.926966
1583.000000	5.075831	-0.204076	8.926966
1584.000000	5.077366	-0.207390	8.926966
1585.000000	5.078952	-0.205479	8.926966
1586.000000	5.080632	-0.228181	8.926966
1587.000000	5.082418	-0.236966	8.926966
1588.000000	5.084295	-0.209541	8.926966
1589.000000	5.086247	-0.216106	8.926966
1590.000000	5.088291	-0.214645	8.926966
1591.000000	5.090452	-0.207729	8.926966
1592.000000	5.092731	-0.194373	8.926966
1593.000000	5.095111	-0.194262	8.926966
1594.000000	5.097578	-0.183885	8.926966
1595.000000	5.100116	-0.189479	8.926966
1596.000000	5.102739	-0.216861	8.926966
1597.000000	5.105473	-0.201833	8.926966
1598.000000	5.108309	-0.192925	8.926966
1599.000000	5.111229	-0.198058	8.926966
1600.000000	5.114237	-0.187990	8.926966
1601.000000	5.117329	-0.181371	8.926966
1602.000000	5.120497	-0.202373	8.926966
1603.000000	5.123723	-0.186712	8.926966
1604.000000	5.126981	-0.181475	8.926966
1605.000000	5.130275	-0.193381	8.926966
1606.000000	5.133640	-0.209134	8.926966
1607.000000	5.137074	-0.182109	8.926966
1608.000000	5.140531	-0.193951	8.926966
1609.000000	5.143992	-0.192220	8.926966
1610.000000	5.147470	-0.185343	8.926966
1611.000000	5.150994	-0.190898	8.926966
1612.000000	5.154585	-0.189260	8.926966
1613.000000	5.158212	-0.182216	8.926966
1614.000000	5.161834	-0.201106	8.926966
1615.000000	5.165467	-0.191086	8.926966
1616.000000	5.169131	-0.179388	8.926966
1617.000000	5.172811	-0.194870	8.926966
1618.000000	5.176486	-0.181044	8.926966
1619.000000	5.180133	-0.174199	8.926966
1620.000000	5.183762	-0.187853	8.926966
1621.000000	5.187402	-0.193425	8.926966
1622.000000	5.191055	-0.191843	8.926966
1623.000000	5.194696	-0.201981	8.926966
1624.000000	5.198315	-0.201833	8.926966
1625.000000	5.201923	-0.196979	8.926966
1626.000000	5.205550	-0.205729	8.926966
1627.000000	5.209208	-0.195658	8.926966
1628.000000	5.212885	-0.199130	8.926966
1629.000000	5.216580	-0.190430	8.926966
1630.000000	5.220313	-0.200653	8.926966
1631.000000	5.224105	-0.213050	8.926966
1632.000000	5.227956	-0.192765	8.926966
1633.000000	5.231843	-0.197738	8.926966
1634.000000	5.235752	-0.184034	8.926966
1635.000000	5.239694	-0.206623	8.926966
1636.000000	5.243686	-0.198097	8.926966
1637.000000	5.247710	-0.189857	8.926966
1638.000000	5.251738	-0.210275	8.926966
1639.000000	5.255786	-0.201759	8.926966
1640.000000	5.259872	-0.195095	8.926966
1641.000000	5.264013	-0.188428	8.926966
1642.000000	5.268221	-0.192391	8.926966
1643.000000	5.272489	-0.192324	8.926966
1644.000000	5.276819	-0.187155	8.926966
1645.000000	5.281223	-0.204529	8.926966
1646.000000	5.285713	-0.202962	8.926966
1647.000000	5.290302	-0.204956	8.926966
1648.000000	5.294973	-0.196322	8.926966
1649.000000	5.299691	-0.189420	8.926966
1650.000000	5.304454	-0.179499	8.926966
1651.000000	5.309283	-0.203645	8.926966
1652.000000	5.314187	-0.186945	8.926966
1653.000000	5.319159	-0.209140	8.926966
1654.000000	5.324190	-0.178063	8.926966
1655.000000	5.329280	-0.193872	8.926966
1656.000000	5.334447	-0.188921	8.926966
1657.000000	5.339703	-0.203057	8.926966
1658.000000	5.345027	-0.168695	8.926966
1659.000000	5.350404	-0.182406	8.926966
1660.000000	5.355838	-0.180841	8.926966
1661.000000	5.361358	-0.191704	8.926966
1662.000000	5.366979	-0.174839	8.926966
1663.000000	5.372681	-0.175018	8.926966
1664.000000	5.378453	-0.157806	8.926966
1665.000000	5.384329	-0.175447	8.926966
1666.000000	5.390347	-0.180689	8.926966
1667.000000	5.396512	-0.175966	8.926966
1668.000000	5.402802	-0.165821	8.926966
1669.000000	5.409201	-0.169197	8.926966
1670.000000	5.415724	-0.154182	8.926966
1671.000000	5.422402	-0.161219	8.926966
1672.000000	5.429240	-0.166840	8.926966
1673.000000	5.436216	-0.163599	8.926966
1674.000000	5.443305	-0.151405	8.926966
1675.000000	5.450505	-0.141490	8.926966
1676.000000	5.457828	-0.162374	8.926966
1677.000000	5.465276	-0.157750	8.926966
1678.000000	5.472829	-0.128437	8.926966
1679.000000	5.480473	-0.154002	8.926966
1680.000000	5.488214	-0.151072	8.926966
1681.000000	5.496072	-0.165109	8.926966
1682.000000	5.504035	-0.141318	8.926966
1683.000000	5.512061	-0.134647	8.926966
1684.000000	5.520113	-0.144433	8.926966
1685.000000	5.528202	-0.157161	8.926966
1686.000000	5.536341	-0.135179	8.926966
1687.000000	5.544510	-0.142380	8.926966
1688.000000	5.552679	-0.139005	8.926966
1689.000000	5.560843	-0.149177	8.926966
1690.000000	5.569012	-0.127366	8.926966
1691.000000	5.577182	-0.134422	8.926966
1692.000000	5.585347	-0.144628	8.926966
1693.000000	5.593502	-0.141500	8.926966
1694.000000	5.601641	-0.141713	8.926966
1695.000000	5.609774	-0.158972	8.926966
1696.000000	5.617926	-0.145605	8.926966
1697.000000	5.626106	-0.143926	8.926966
1698.000000	5.634276	-0.130496	8.926966
1699.000000	5.642416	-0.116846	8.926966
1700.000000	5.650559	-0.134170	8.926966
1701.000000	5.658719	-0.134378	8.926966
1702.000000	5.666869	-0.117717	8.926966
1703.000000	5.674982	-0.121213	8.926966
1704.000000	5.683058	-0.122927	8.926966
1705.000000	5.691123	-0.112820	8.926966
1706.000000	5.699202	-0.128559	8.926966
1707.000000	5.707286	-0.118752	8.926966
1708.000000	5.715346	-0.103238	8.926966
1709.000000	5.723363	-0.096418	8.926966
1710.000000	5.731330	-0.115334	8.926966
1711.000000	5.739261	-0.112305	8.926966
1712.000000	5.747169	-0.092173	8.926966
1713.000000	5.755051	-0.100732	8.926966
1714.000000	5.762899	-0.110974	8.926966
1715.000000	5.770709	-0.094021	8.926966
1716.000000	5.778497	-0.128525	8.926966
1717.000000	5.786281	-0.108418	8.926966
1718.000000	5.794037	-0.094670	8.926966
1719.000000	5.801732	-0.082706	8.926966
1720.000000	5.809380	-0.096543	8.926966
1721.000000	5.817005	-0.089866	8.926966
1722.000000	5.824611	-0.102443	8.926966
1723.000000	5.832178	-0.086885	8.926966
1724.000000	5.839690	-0.080254	8.926966
1725.000000	5.847150	-0.095757	8.926966
1726.000000	5.854569	-0.090772	8.926966
1727.000000	5.861944	-0.074077	8.926966
1728.000000	5.869260	-0.089192	8.926966
1729.000000	5.876511	-0.053814	8.926966
1730.000000	5.883692	-0.077748	8.926966
1731.000000	5.890803	-0.081354	8.926966
1732.000000	5.897850	-0.083223	8.926966
1733.000000	5.904836	-0.081377	8.926966
1734.000000	5.911765	-0.090343	8.926966
1735.000000	5.918648	-0.094090	8.926966
1736.000000	5.925487	-0.078657	8.926966
1737.000000	5.932256	-0.089014	8.926966
1738.000000	5.938951	-0.092378	8.926966
1739.000000	5.945601	-0.077259	8.926966
1740.000000	5.952221	-0.089497	8.926966
1741.000000	5.958785	-0.079218	8.926966
1742.000000	5.965270	-0.077579	8.926966
1743.000000	5.971677	-0.082443	8.926966
1744.000000	5.978025	-0.089880	8.926966
1745.000000	5.984325	-0.069767	8.926966
1746.000000	5.990573	-0.079836	8.926966
1747.000000	5.996755	-0.085109	8.926966
1748.000000	6.002871	-0.078160	8.926966
1749.000000	6.008936	-0.085433	8.926966
1750.000000	6.014952	-0.067066	8.926966
1751.000000	6.020895	-0.078821	8.926966
1752.000000	6.026734	-0.077064	8.926966
1753.000000	6.032469	-0.080500	8.926966
1754.000000	6.038135	-0.084086	8.926966
1755.000000	6.043743	-0.072507	8.926966
1756.000000	6.049277	-0.082791	8.926966
1757.000000	6.054719	-0.060551	8.926966
1758.000000	6.060057	-0.075895	8.926966
1759.000000	6.065305	-0.086085	8.926966
1760.000000	6.070481	-0.083082	8.926966
1761.000000	6.075579	-0.077983	8.926966
1762.000000	6.080578	-0.086572	8.926966
1763.000000	6.085494	-0.093445	8.926966
1764.000000	6.090357	-0.090373	8.926966
1765.000000	6.095164	-0.076758	8.926966
1766.000000	6.099895	-0.087095	8.926966
1767.000000	6.104541	-0.064644	8.926966
1768.000000	6.109126	-0.081773	8.926966
1769.000000	6.113680	-0.085476	8.926966
1770.000000	6.118196	-0.082402	8.926966
1771.000000	6.122642	-0.077177	8.926966
1772.000000	6.127015	-0.089089	8.926966
1773.000000	6.131335	-0.079061	8.926966
1774.000000	6.135630	-0.079134	8.926966
1775.000000	6.139916	-0.079368	8.926966
1776.000000	6.144170	-0.063829	8.926966
1777.000000	6.148363	-0.062233	8.926966
1778.000000	6.152498	-0.084632	8.926966
1779.000000	6.156596	-0.081256	8.926966
1780.000000	6.160663	-0.079869	8.926966
1781.000000	6.164694	-0.090310	8.926966
1782.000000	6.168678	-0.085014	8.926966
1783.000000	6.172628	-0.086648	8.926966
1784.000000	6.176570	-0.078327	8.926966
1785.000000	6.180506	-0.100923	8.926966
1786.000000	6.184411	-0.070078	8.926966
1787.000000	6.188269	-0.090228	8.926966
1788.000000	6.192099	-0.090739	8.926966
1789.000000	6.195916	-0.095996	8.926966
1790.000000	6.199714	-0.080706	8.926966
1791.000000	6.203474	-0.096263	8.926966
1792.000000	6.207195	-0.072131	8.926966
1793.000000	6.210889	-0.080751	8.926966
1794.000000	6.214574	-0.085933	8.926966
1795.000000	6.218247	-0.084826	8.926966
1796.000000	6.221876	-0.079510	8.926966
1797.000000	6.225454	-0.091481	8.926966
1798.000000	6.228997	-0.076360	8.926966
1799.000000	6.232517	-0.095151	8.926966
1800.000000	6.236019	-0.074786	8.926966
1801.000000	6.239493	-0.064146	8.926966
1802.000000	6.242930	-0.083050	8.926966
1803.000000	6.246329	-0.090039	8.926966
1804.000000	6.249685	-0.086827	8.926966
1805.000000	6.252989	-0.073178	8.926966
1806.000000	6.256238	-0.086987	8.926966
1807.000000	6.259432	-0.102327	8.926966
1808.000000	6.262584	-0.095897	8.926966
1809.000000	6.265688	-0.080373	8.926966
1810.000000	6.268727	-0.094204	8.926966
1811.000000	6.271698	-0.092441	8.926966
1812.000000	6.274615	-0.113099	8.926966
1813.000000	6.277499	-0.111301	8.926966
1814.000000	6.280348	-0.094708	8.926966
1815.000000	6.283139	-0.090883	8.926966
1816.000000	6.285851	-0.099601	8.926966
1817.000000	6.288480	-0.084225	8.926966
1818.000000	6.291055	-0.092877	8.926966
1819.000000	6.293591	-0.096145	8.926966
1820.000000	6.296071	-0.103122	8.926966
1821.000000	6.298500	-0.106368	8.926966
1822.000000	6.300892	-0.099797	8.926966
1823.000000	6.303245	-0.094923	8.926966
1824.000000	6.305553	-0.115493	8.926966
1825.000000	6.307822	-0.099646	8.926966
1826.000000	6.310066	-0.104978	8.926966
1827.000000	6.312289	-0.117263	8.926966
1828.000000	6.314482	-0.115930	8.926966
1829.000000	6.316616	-0.096927	8.926966
1830.000000	6.318663	-0.106939	8.926966
1831.000000	6.320640	-0.112078	8.926966
1832.000000	6.322580	-0.115635	8.926966
1833.000000	6.324502	-0.110573	8.926966
1834.000000	6.326389	-0.093467	8.926966
1835.000000	6.328199	-0.114199	8.926966
1836.000000	6.329923	-0.108921	8.926966
1837.000000	6.331580	-0.114199	8.926966
1838.000000	6.333171	-0.106038	8.926966
1839.000000	6.334680	-0.105627	8.926966
1840.000000	6.336111	-0.103746	8.926966
1841.000000	6.337484	-0.112492	8.926966
1842.000000	6.338809	-0.105793	8.926966
1843.000000	6.340089	-0.111243	8.926966
1844.000000	6.341306	-0.114436	8.926966
1845.000000	6.342427	-0.102189	8.926966
1846.000000	6.343463	-0.122876	8.926966
1847.000000	6.344449	-0.118046	8.926966
1848.000000	6.345384	-0.107798	8.926966
1849.000000	6.346252	-0.123122	8.926966
1850.000000	6.347040	-0.095655	8.926966
1851.000000	6.347755	-0.121443	8.926966
1852.000000	6.348407	-0.125579	8.926966
1853.000000	6.348995	-0.123257	8.926966
1854.000000	6.349517	-0.104246	8.926966
1855.000000	6.349983	-0.118106	8.926966
1856.000000	6.350408	-0.120071	8.926966
1857.000000	6.350809	-0.128364	8.926966
1858.000000	6.351194	-0.126824	8.926966
1859.000000	6.351548	-0.121783	8.926966
1860.000000	6.351853	-0.126873	8.926966
1861.000000	6.352125	-0.131964	8.926966
1862.000000	6.352398	-0.133828	8.926966
1863.000000	6.352678	-0.121964	8.926966
1864.000000	6.352941	-0.123276	8.926966
1865.000000	6.353163	-0.135215	8.926966
1866.000000	6.353349	-0.142333	8.926966
1867.000000	6.353513	-0.137456	8.926966
1868.000000	6.353660	-0.139078	8.926966
1869.000000	6.353783	-0.128666	8.926966
1870.000000	6.353880	-0.130601	8.926966
1871.000000	6.353964	-0.144132	8.926966
1872.000000	6.354030	-0.132208	8.926966
1873.000000	6.354051	-0.133809	8.926966
1874.000000	6.354023	-0.150927	8.926966
1875.000000	6.353967	-0.152886	8.926966
1876.000000	6.353896	-0.142704	8.926966
1877.000000	6.353793	-0.139068	8.926966
1878.000000	6.353629	-0.140865	8.926966
1879.000000	6.353409	-0.157954	8.926966
1880.000000	6.353155	-0.139013	8.926966
1881.000000	6.352872	-0.153127	8.926966
1882.000000	6.352543	-0.132176	8.926966
1883.000000	6.352160	-0.156215	8.926966
1884.000000	6.351737	-0.150858	8.926966
1885.000000	6.351299	-0.149465	8.926966
1886.000000	6.350855	-0.160020	8.926966
1887.000000	6.350385	-0.154509	8.926966
1888.000000	6.349870	-0.163543	8.926966
1889.000000	6.349319	-0.164786	8.926966
1890.000000	6.348760	-0.170029	8.926966
1891.000000	6.348202	-0.168481	8.926966
1892.000000	6.347632	-0.137466	8.926966
1893.000000	6.347034	-0.158237	8.926966
1894.000000	6.346427	-0.170027	8.926966
1895.000000	6.345843	-0.163319	8.926966
1896.000000	6.345279	-0.137687	8.926966
1897.000000	6.344711	-0.151385	8.926966
1898.000000	6.344146	-0.159902	8.926966
1899.000000	6.343615	-0.163599	8.926966
1900.000000	6.343130	-0.174119	8.926966
1901.000000	6.342688	-0.158437	8.926966
1902.000000	6.342292	-0.153441	8.926966
1903.000000	6.341948	-0.173777	8.926966
1904.000000	6.341676	-0.168950	8.926966
1905.000000	6.341492	-0.150403	8.926966
1906.000000	6.341386	-0.163793	8.926966
1907.000000	6.341331	-0.153621	8.926966
1908.000000	6.341315	-0.153833	8.926966
1909.000000	6.341357	-0.163917	8.926966
1910.000000	6.341484	-0.153721	8.926966
1911.000000	6.341684	-0.150487	8.926966
1912.000000	6.341941	-0.167473	8.926966
1913.000000	6.342270	-0.153888	8.926966
1914.000000	6.342682	-0.145701	8.926966
1915.000000	6.343160	-0.161084	8.926966
1916.000000	6.343691	-0.155761	8.926966
1917.000000	6.344290	-0.150597	8.926966
1918.000000	6.344971	-0.161125	8.926966
1919.000000	6.345722	-0.163129	8.926966
1920.000000	6.346517	-0.169692	8.926966
1921.000000	6.347349	-0.145623	8.926966
1922.000000	6.348239	-0.157638	8.926966
1923.000000	6.349208	-0.147659	8.926966
1924.000000	6.350252	-0.151242	8.926966
1925.000000	6.351351	-0.145912	8.926966
1926.000000	6.352484	-0.149506	8.926966
1927.000000	6.353656	-0.154843	8.926966
1928.000000	6.354868	-0.154783	8.926966
1929.000000	6.356097	-0.132592	8.926966
1930.000000	6.357328	-0.146138	8.926966
1931.000000	6.358577	-0.149734	8.926966
1932.000000	6.359868	-0.151518	8.926966
1933.000000	6.361209	-0.132814	8.926966
1934.000000	6.362585	-0.126062	8.926966
1935.000000	6.363983	-0.134492	8.926966
1936.000000	6.365407	-0.146619	8.926966
1937.000000	6.366871	-0.144945	8.926966
1938.000000	6.368361	-0.145134	8.926966
1939.000000	6.369851	-0.128113	8.926966
1940.000000	6.371344	-0.134762	8.926966
1941.000000	6.372873	-0.130095	8.926966
1942.000000	6.374453	-0.148885	8.926966
1943.000000	6.376064	-0.145306	8.926966
1944.000000	6.377677	-0.138318	8.926966
1945.000000	6.379290	-0.133305	8.926966
1946.000000	6.380908	-0.147131	8.926966
1947.000000	6.382528	-0.145834	8.926966
1948.000000	6.384154	-0.142145	8.926966
1949.000000	6.385780	-0.123519	8.926966
1950.000000	6.387404	-0.130088	8.926966
1951.000000	6.389062	-0.164776	8.926966
1952.000000	6.390787	-0.134153	8.926966
1953.000000	6.392562	-0.139128	8.926966
1954.000000	6.394354	-0.120420	8.926966
1955.000000	6.396163	-0.147732	8.926966
1956.000000	6.398002	-0.137639	8.926966
1957.000000	6.399889	-0.153288	8.926966
1958.000000	6.401831	-0.129225	8.926966
1959.000000	6.403813	-0.131174	8.926966
1960.000000	6.405831	-0.148230	8.926966
1961.000000	6.407901	-0.134825	8.926966
1962.000000	6.410025	-0.141820	8.926966
1963.000000	6.412195	-0.126620	8.926966
1964.000000	6.414400	-0.126283	8.926966
1965.000000	6.416645	-0.140114	8.926966
1966.000000	6.418948	-0.125005	8.926966
1967.000000	6.421314	-0.130424	8.926966
1968.000000	6.423743	-0.113252	8.926966
1969.000000	6.426226	-0.126732	8.926966
1970.000000	6.428758	-0.137367	8.926966
1971.000000	6.431348	-0.115054	8.926966
1972.000000	6.433986	-0.132566	8.926966
1973.000000	6.436646	-0.127539	8.926966
1974.000000	6.439321	-0.116877	8.926966
1975.000000	6.442025	-0.125989	8.926966
1976.000000	6.444760	-0.107190	8.926966
1977.000000	6.447497	-0.102056	8.926966
1978.000000	6.450225	-0.119284	8.926966
1979.000000	6.452953	-0.109034	8.926966
1980.000000	6.455692	-0.095567	8.926966
1981.000000	6.458456	-0.115919	8.926966
1982.000000	6.461244	-0.102548	8.926966
1983.000000	6.464046	-0.110959	8.926966
1984.000000	6.466864	-0.081750	8.926966
1985.000000	6.469707	-0.123342	8.926966
1986.000000	6.472570	-0.089210	8.926966
1987.000000	6.475435	-0.089127	8.926966
1988.000000	6.478303	-0.101126	8.926966
1989.000000	6.481196	-0.103148	8.926966
1990.000000	6.484133	-0.098424	8.926966
1991.000000	6.487113	-0.093115	8.926966
1992.000000	6.490120	-0.074312	8.926966
1993.000000	6.493160	-0.095099	8.926966
1994.000000	6.496259	-0.091902	8.926966
1995.000000	6.499425	-0.085107	8.926966
1996.000000	6.502643	-0.092224	8.926966
1997.000000	6.505893	-0.081948	8.926966
1998.000000	6.509192	-0.095816	8.926966
1999.000000	6.512581	-0.075501	8.926966
2000.000000	6.516076	-0.074023	8.926966
2001.000000	6.519667	-0.084533	8.926966
2002.000000	6.523340	-0.082604	8.926966
2003.000000	6.527091	-0.074264	8.926966
2004.000000	6.530939	-0.069294	8.926966
2005.000000	6.534896	-0.061222	8.926966
2006.000000	6.538953	-0.066112	8.926966
2007.000000	6.543106	-0.069921	8.926966
2008.000000	6.547364	-0.070168	8.926966
2009.000000	6.551738	-0.084175	8.926966
2010.000000	6.556220	-0.051734	8.926966
2011.000000	6.560777	-0.045112	8.926966
2012.000000	6.565403	-0.064165	8.926966
2013.000000	6.570114	-0.054163	8.926966
2014.000000	6.574909	-0.047174	8.926966
2015.000000	6.579780	-0.037042	8.926966
2016.000000	6.584721	-0.040912	8.926966
2017.000000	6.589746	-0.040807	8.926966
2018.000000	6.594863	-0.032663	8.926966
2019.000000	6.600067	-0.039600	8.926966
2020.000000	6.605349	-0.029597	8.926966
2021.000000	6.610698	-0.041684	8.926966
2022.000000	6.616115	-0.036588	8.926966
2023.000000	6.621593	-0.035292	8.926966
2024.000000	6.627091	-0.016509	8.926966
2025.000000	6.632564	-0.012973	8.926966
2026.000000	6.638016	-0.006369	8.926966
2027.000000	6.643464	-0.020168	8.926966
2028.000000	6.648905	-0.036121	8.926966
2029.000000	6.654318	-0.010182	8.926966
2030.000000	6.659675	-0.015371	8.926966
2031.000000	6.664980	-0.003750	8.926966
2032.000000	6.670243	-0.005550	8.926966
2033.000000	6.675457	-0.003985	8.926966
2034.000000	6.680616	0.008086	8.926966
2035.000000	6.685694	-0.007419	8.926966
2036.000000	6.690687	-0.004069	8.926966
2037.000000	6.695617	-0.000880	8.926966
2038.000000	6.700473	-0.004642	8.926966
2039.000000	6.705218	0.002331	8.926966
2040.000000	6.709834	-0.006192	8.926966
2041.000000	6.714338	0.000469	8.926966
2042.000000	6.718762	0.000174	8.926966
2043.000000	6.723116	0.010435	8.926966
2044.000000	6.727375	0.010302	8.926966
2045.000000	6.731516	0.015706	8.926966
2046.000000	6.735554	-0.015341	8.926966
2047.000000	6.739531	0.012145	8.926966
2048.000000	6.743472	-0.005397	8.926966
2049.000000	6.747363	-0.008870	8.926966
2050.000000	6.751174	-0.005342	8.926966
2051.000000	6.754906	0.015032	8.926966
2052.000000	6.758581	-0.022742	8.926966
2053.000000	6.762195	0.002738	8.926966
2054.000000	6.765720	-0.002369	8.926966
2055.000000	6.769141	0.014766	8.926966
2056.000000	6.772470	-0.009269	8.926966
2057.000000	6.775735	-0.004248	8.926966
2058.000000	6.778955	0.000730	8.926966
2059.000000	6.782125	-0.009513	8.926966
2060.000000	6.785228	-0.000967	8.926966
2061.000000	6.788277	-0.002701	8.926966
2062.000000	6.791294	-0.004798	8.926966
2063.000000	6.794281	-0.001619	8.926966
2064.000000	6.797219	0.010426	8.926966
2065.000000	6.800089	0.002293	8.926966
2066.000000	6.802899	0.000412	8.926966
2067.000000	6.805672	0.003619	8.926966
2068.000000	6.808422	-0.005519	8.926966
2069.000000	6.811124	0.001720	8.926966
2070.000000	6.813752	0.013878	8.926966
2071.000000	6.816315	0.001713	8.926966
2072.000000	6.818835	-0.012474	8.926966
2073.000000	6.821310	0.011794	8.926966
2074.000000	6.823723	0.011831	8.926966
2075.000000	6.826081	-0.003790	8.926966
2076.000000	6.828416	0.015086	8.926966
2077.000000	6.830750	-0.000385	8.926966
2078.000000	6.833080	0.001194	8.926966
2079.000000	6.835390	0.014618	8.926966
2080.000000	6.837679	0.002800	8.926966
2081.000000	6.839964	0.009345	8.926966
2082.000000	6.842257	0.009357	8.926966
2083.000000	6.844550	0.031448	8.926966
2084.000000	6.846835	0.033196	8.926966
2085.000000	6.849106	0.015953	8.926966
2086.000000	6.851374	0.012160	8.926966
2087.000000	6.853652	0.024254	8.926966
2088.000000	6.855931	0.013689	8.926966
2089.000000	6.858189	0.015571	8.926966
2090.000000	6.860432	0.020468	8.926966
2091.000000	6.862674	0.025535	8.926966
2092.000000	6.864908	0.029140	8.926966
2093.000000	6.867120	0.023969	8.926966
2094.000000	6.869329	0.029286	8.926966
2095.000000	6.871554	0.028867	8.926966
2096.000000	6.873793	0.016808	8.926966
2097.000000	6.876040	0.015029	8.926966
2098.000000	6.878271	0.028690	8.926966
2099.000000	6.880465	0.037326	8.926966
2100.000000	6.882630	0.019957	8.926966
2101.000000	6.884807	0.006297	8.926966
2102.000000	6.887014	0.023220	8.926966
2103.000000	6.889212	0.035316	8.926966
2104.000000	6.891386	0.031575	8.926966
2105.000000	6.893555	0.024839	8.926966
2106.000000	6.895731	0.019381	8.926966
2107.000000	6.897902	0.022813	8.926966
2108.000000	6.900042	0.034969	8.926966
2109.000000	6.902157	0.022955	8.926966
2110.000000	6.904280	0.019219	8.926966
2111.000000	6.906425	0.031127	8.926966
2112.000000	6.908574	0.037860	8.926966
2113.000000	6.910703	0.031199	8.926966
2114.000000	6.912801	0.027653	8.926966
2115.000000	6.914874	0.051703	8.926966
2116.000000	6.916948	0.027339	8.926966
2117.000000	6.919020	0.029071	8.926966
2118.000000	6.921062	0.042876	8.926966
2119.000000	6.923065	0.046238	8.926966
2120.000000	6.925051	0.037563	8.926966
2121.000000	6.927038	0.047382	8.926966
2122.000000	6.929003	0.046055	8.926966
2123.000000	6.930919	0.040842	8.926966
2124.000000	6.932789	0.042739	8.926966
2125.000000	6.934625	0.027015	8.926966
2126.000000	6.936421	0.045672	8.926966
2127.000000	6.938166	0.042475	8.926966
2128.000000	6.939854	0.066622	8.926966
2129.000000	6.941489	0.051014	8.926966
2130.000000	6.943085	0.030134	8.926966
2131.000000	6.944647	0.057678	8.926966
2132.000000	6.946157	0.057768	8.926966
2133.000000	6.947607	0.049123	8.926966
2134.000000	6.949017	0.049023	8.926966
2135.000000	6.950398	0.047198	8.926966
2136.000000	6.951739	0.045498	8.926966
2137.000000	6.953040	0.050652	8.926966
2138.000000	6.954307	0.043644	8.926966
2139.000000	6.955543	0.033337	8.926966
2140.000000	6.956750	0.040221	8.926966
2141.000000	6.957912	0.035314	8.926966
2142.000000	6.959024	0.059295	8.926966
2143.000000	6.960115	0.026624	8.926966
2144.000000	6.961202	0.046884	8.926966
2145.000000	6.962260	0.043600	8.926966
2146.000000	6.963254	0.047223	8.926966
2147.000000	6.964203	0.041961	8.926966
2148.000000	6.965148	0.040116	8.926966
2149.000000	6.966083	0.046705	8.926966
2150.000000	6.966982	0.051885	8.926966
2151.000000	6.967839	0.071117	8.926966
2152.000000	6.968673	0.046965	8.926966
2153.000000	6.969502	0.050095	8.926966
2154.000000	6.970315	0.053571	8.926966
2155.000000	6.971099	0.038274	8.926966
2156.000000	6.971849	0.051989	8.926966
2157.000000	6.972578	0.031312	8.926966
2158.000000	6.973303	0.041639	8.926966
2159.000000	6.974021	0.048321	8.926966
2160.000000	6.974717	0.053364	8.926966
2161.000000	6.975384	0.055424	8.926966
2162.000000	6.976038	0.031091	8.926966
2163.000000	6.976709	0.036241	8.926966
2164.000000	6.977398	0.037968	8.926966
2165.000000	6.978087	0.051575	8.926966
2166.000000	6.978791	0.037887	8.926966
2167.000000	6.979541	0.039486	8.926966
2168.000000	6.980338	0.047946	8.926966
2169.000000	6.981160	0.049586	8.926966
2170.000000	6.982008	0.041109	8.926966
2171.000000	6.982906	0.051014	8.926966
2172.000000	6.983881	0.038955	8.926966
2173.000000	6.984934	0.054330	8.926966
2174.000000	6.986042	0.035585	8.926966
2175.000000	6.987212	0.032115	8.926966
2176.000000	6.988481	0.033634	8.926966
2177.000000	6.989862	0.059013	8.926966
2178.000000	6.991327	0.041984	8.926966
2179.000000	6.992846	0.050582	8.926966
2180.000000	6.994422	0.062412	8.926966
2181.000000	6.996074	0.055489	8.926966
2182.000000	6.997817	0.046501	8.926966
2183.000000	6.999631	0.068795	8.926966
2184.000000	7.001503	0.056917	8.926966
2185.000000	7.003457	0.049950	8.926966
2186.000000	7.005522	0.065205	8.926966
2187.000000	7.007694	0.044315	8.926966
2188.000000	7.009946	0.059885	8.926966
2189.000000	7.012258	0.061382	8.926966
2190.000000	7.014626	0.061247	8.926966
2191.000000	7.017057	0.057716	8.926966
2192.000000	7.019552	0.071331	8.926966
2193.000000	7.022102	0.057830	8.926966
2194.000000	7.024704	0.066054	8.926966
2195.000000	7.027364	0.070815	8.926966
2196.000000	7.030080	0.084743	8.926966
2197.000000	7.032844	0.067254	8.926966
2198.000000	7.035660	0.070832	8.926966
2199.000000	7.038535	0.079259	8.926966
2200.000000	7.041467	0.058489	8.926966
2201.000000	7.044433	0.067027	8.926966
2202.000000	7.047407	0.070618	8.926966
2203.000000	7.050403	0.080704	8.926966
2204.000000	7.053455	0.090728	8.926966
2205.000000	7.056566	0.083662	8.926966
2206.000000	7.059722	0.090473	8.926966
2207.000000	7.062914	0.102360	8.926966
2208.000000	7.066136	0.069630	8.926966
2209.000000	7.069400	0.076210	8.926966
2210.000000	7.072720	0.108775	8.926966
2211.000000	7.076085	0.071061	8.926966
2212.000000	7.079477	0.079368	8.926966
2213.000000	7.082897	0.094670	8.926966
2214.000000	7.086354	0.091424	8.926966
2215.000000	7.089839	0.089299	8.926966
2216.000000	7.093333	0.101456	8.926966
2217.000000	7.096834	0.106377	8.926966
2218.000000	7.100350	0.099178	8.926966
2219.000000	7.103872	0.083820	8.926966
2220.000000	7.107382	0.092564	8.926966
2221.000000	7.110885	0.087318	8.926966
2222.000000	7.114413	0.097367	8.926966
2223.000000	7.117984	0.109112	8.926966
2224.000000	7.121583	0.109120	8.926966
2225.000000	7.125191	0.114143	8.926966
2226.000000	7.128812	0.097102	8.926966
2227.000000	7.132472	0.098380	8.926966
2228.000000	7.136187	0.103338	8.926966
2229.000000	7.139951	0.105208	8.926966
2230.000000	7.143753	0.115250	8.926966
2231.000000	7.147602	0.110072	8.926966
2232.000000	7.151506	0.109893	8.926966
2233.000000	7.155458	0.113094	8.926966
2234.000000	7.159445	0.104463	8.926966
2235.000000	7.163447	0.119829	8.926966
2236.000000	7.167478	0.109365	8.926966
2237.000000	7.171564	0.120865	8.926966
2238.000000	7.175687	0.129390	8.926966
2239.000000	7.179805	0.100003	8.926966
2240.000000	7.183905	0.120991	8.926966
2241.000000	7.188002	0.110536	8.926966
2242.000000	7.192123	0.122356	8.926966
2243.000000	7.196261	0.123941	8.926966
2244.000000	7.200385	0.137488	8.926966
2245.000000	7.204495	0.142563	8.926966
2246.000000	7.208623	0.135468	8.926966
2247.000000	7.212766	0.136927	8.926966
2248.000000	7.216887	0.168205	8.926966
2249.000000	7.220967	0.140405	8.926966
2250.000000	7.225009	0.141975	8.926966
2251.000000	7.229012	0.148736	8.926966
2252.000000	7.232991	0.136592	8.926966
2253.000000	7.236950	0.174013	8.926966
2254.000000	7.240871	0.155382	8.926966
2255.000000	7.244750	0.148328	8.926966
2256.000000	7.248603	0.153141	8.926966
2257.000000	7.252440	0.146435	8.926966
2258.000000	7.256254	0.165096	8.926966
2259.000000	7.260026	0.159874	8.926966
2260.000000	7.263753	0.154641	8.926966
2261.000000	7.267450	0.159530	8.926966
2262.000000	7.271124	0.152669	8.926966
2263.000000	7.274774	0.193589	8.926966
2264.000000	7.278402	0.164394	8.926966
2265.000000	7.282010	0.168035	8.926966
2266.000000	7.285606	0.174352	8.926966
2267.000000	7.289191	0.172813	8.926966
2268.000000	7.292756	0.172699	8.926966
2269.000000	7.296296	0.184500	8.926966
2270.000000	7.299811	0.186226	8.926966
2271.000000	7.303311	0.189218	8.926966
2272.000000	7.306788	0.194561	8.926966
2273.000000	7.310231	0.184147	8.926966
2274.000000	7.313643	0.199535	8.926966
2275.000000	7.317031	0.187087	8.926966
2276.000000	7.320400	0.193979	8.926966
2277.000000	7.323728	0.204176	8.926966
2278.000000	7.326996	0.199163	8.926966
2279.000000	7.330231	0.202361	8.926966
2280.000000	7.333477	0.188629	8.926966
2281.000000	7.336730	0.212335	8.926966
2282.000000	7.339946	0.212447	8.926966
2283.000000	7.343100	0.212378	8.926966
2284.000000	7.346198	0.222852	8.926966
2285.000000	7.349257	0.193214	8.926966
2286.000000	7.352284	0.218785	8.926966
2287.000000	7.355259	0.220650	8.926966
2288.000000	7.358169	0.229244	8.926966
2289.000000	7.361028	0.215558	8.926966
2290.000000	7.363850	0.203208	8.926966
2291.000000	7.366647	0.206331	8.926966
2292.000000	7.369404	0.225457	8.926966
2293.000000	7.372098	0.206719	8.926966
2294.000000	7.374738	0.216829	8.926966
2295.000000	7.377355	0.205041	8.926966
2296.000000	7.379949	0.221673	8.926966
2297.000000	7.382493	0.225151	8.926966
2298.000000	7.384969	0.228599	8.926966
2299.000000	7.387389	0.213099	8.926966
2300.000000	7.389774	0.231870	8.926966
2301.000000	7.392133	0.216140	8.926966
2302.000000	7.394459	0.211240	8.926966
2303.000000	7.396749	0.216281	8.926966
2304.000000	7.399024	0.219729	8.926966
2305.000000	7.401304	0.216037	8.926966
2306.000000	7.403585	0.221167	8.926966
2307.000000	7.405839	0.229624	8.926966
2308.000000	7.408035	0.236483	8.926966
2309.000000	7.410184	0.229554	8.926966
2310.000000	7.412325	0.210754	8.926966
2311.000000	7.414459	0.227590	8.926966
2312.000000	7.416569	0.237688	8.926966
2313.000000	7.418649	0.222846	8.926966
2314.000000	7.420700	0.224181	8.926966
2315.000000	7.422733	0.223986	8.926966
2316.000000	7.424740	0.234215	8.926966
2317.000000	7.426698	0.239482	8.926966
2318.000000	7.428613	0.229067	8.926966
2319.000000	7.430501	0.225531	8.926966
2320.000000	7.432378	0.229018	8.926966
2321.000000	7.434254	0.234030	8.926966
2322.000000	7.436139	0.230545	8.926966
2323.000000	7.438035	0.223679	8.926966
2324.000000	7.439943	0.228580	8.926966
2325.000000	7.441872	0.230118	8.926966
2326.000000	7.443797	0.242320	8.926966
2327.000000	7.445697	0.230204	8.926966
2328.000000	7.447576	0.231825	8.926966
2329.000000	7.449441	0.236929	8.926966
2330.000000	7.451280	0.240327	8.926966
2331.000000	7.453072	0.240294	8.926966
2332.000000	7.454831	0.219758	8.926966
2333.000000	7.456578	0.228345	8.926966
2334.000000	7.458304	0.231342	8.926966
2335.000000	7.459991	0.243384	8.926966
2336.000000	7.461631	0.236762	8.926966
2337.000000	7.463235	0.233223	8.926966
2338.000000	7.464837	0.224668	8.926966
2339.000000	7.466453	0.229589	8.926966
2340.000000	7.468045	0.239923	8.926966
2341.000000	7.469574	0.248674	8.926966
2342.000000	7.471044	0.224635	8.926966
2343.000000	7.472491	0.222760	8.926966
2344.000000	7.473930	0.219153	8.926966
2345.000000	7.475336	0.238062	8.926966
2346.000000	7.476700	0.241471	8.926966
2347.000000	7.478047	0.231474	8.926966
2348.000000	7.479396	0.227691	8.926966
2349.000000	7.480755	0.227265	8.926966
2350.000000	7.482114	0.246418	8.926966
2351.000000	7.483456	0.229350	8.926966
2352.000000	7.484789	0.237669	8.926966
2353.000000	7.486138	0.247932	8.926966
2354.000000	7.487499	0.218727	8.926966
2355.000000	7.488851	0.249740	8.926966
2356.000000	7.490182	0.224032	8.926966
2357.000000	7.491503	0.218947	8.926966
2358.000000	7.492845	0.244255	8.926966
2359.000000	7.494202	0.245886	8.926966
2360.000000	7.495544	0.246247	8.926966
2361.000000	7.496863	0.242688	8.926966
2362.000000	7.498176	0.228992	8.926966
2363.000000	7.499494	0.232351	8.926966
2364.000000	7.500811	0.245877	8.926966
2365.000000	7.502112	0.210221	8.926966
2366.000000	7.503410	0.237205	8.926966
2367.000000	7.504713	0.226931	8.926966
2368.000000	7.506018	0.218345	8.926966
2369.000000	7.507325	0.232166	8.926966
2370.000000	7.508626	0.228789	8.926966
2371.000000	7.509919	0.231990	8.926966
2372.000000	7.511206	0.247186	8.926966
2373.000000	7.512473	0.252224	8.926966
2374.000000	7.513712	0.250737	8.926966
2375.000000	7.514949	0.231610	8.926966
2376.000000	7.516225	0.228205	8.926966
2377.000000	7.517551	0.238145	8.926966
2378.000000	7.518918	0.234765	8.926966
2379.000000	7.520331	0.234910	8.926966
2380.000000	7.521817	0.236488	8.926966
2381.000000	7.523408	0.232758	8.926966
2382.000000	7.525111	0.246269	8.926966
2383.000000	7.526911	0.240991	8.926966
2384.000000	7.528796	0.242639	8.926966
2385.000000	7.530780	0.228828	8.926966
2386.000000	7.532891	0.247424	8.926966
2387.000000	7.535127	0.250565	8.926966
2388.000000	7.537479	0.240587	8.926966
2389.000000	7.539953	0.237118	8.926966
2390.000000	7.542573	0.255678	8.926966
2391.000000	7.545341	0.250245	8.926966
2392.000000	7.548235	0.253628	8.926966
2393.000000	7.551234	0.260327	8.926966
2394.000000	7.554332	0.250059	8.926966
2395.000000	7.557544	0.251590	8.926966
2396.000000	7.560881	0.248075	8.926966
2397.000000	7.564318	0.259562	8.926966
2398.000000	7.567849	0.270023	8.926966
2399.000000	7.571486	0.254573	8.926966
2400.000000	7.575234	0.273178	8.926966
2401.000000	7.579103	0.274613	8.926966
2402.000000	7.583091	0.282877	8.926966
2403.000000	7.587164	0.277585	8.926966
2404.000000	7.591299	0.275859	8.926966
2405.000000	7.595520	0.291181	8.926966
2406.000000	7.599856	0.297624	8.926966
2407.000000	7.604302	0.296070	8.926966
2408.000000	7.608843	0.287148	8.926966
2409.000000	7.613479	0.278424	8.926966
2410.000000	7.618220	0.279865	8.926966
2411.000000	7.623061	0.303624	8.926966
2412.000000	7.627978	0.317156	8.926966
2413.000000	7.632959	0.308159	8.926966
2414.000000	7.638022	0.315092	8.926966
2415.000000	7.643182	0.313083	8.926966
2416.000000	7.648418	0.321790	8.926966
2417.000000	7.653693	0.316517	8.926966
2418.000000	7.659010	0.307782	8.926966
2419.000000	7.664395	0.319768	8.926966
2420.000000	7.669839	0.331422	8.926966
2421.000000	7.675297	0.338049	8.926966
2422.000000	7.680744	0.334834	8.926966
2423.000000	7.686189	0.318808	8.926966
2424.000000	7.691627	0.324048	8.926966
2425.000000	7.697055	0.334127	8.926966
2426.000000	7.702474	0.335881	8.926966
2427.000000	7.707875	0.342716	8.926966
2428.000000	7.713252	0.337184	8.926966
2429.000000	7.718609	0.338769	8.926966
2430.000000	7.723947	0.345402	8.926966
2431.000000	7.729248	0.342164	8.926966
2432.000000	7.734501	0.347224	8.926966
2433.000000	7.739712	0.341844	8.926966
2434.000000	7.744890	0.350270	8.926966
2435.000000	7.750039	0.344714	8.926966
2436.000000	7.755128	0.358694	8.926966
2437.000000	7.760126	0.348407	8.926966
2438.000000	7.765037	0.344913	8.926966
2439.000000	7.769892	0.349911	8.926966
2440.000000	7.774712	0.353131	8.926966
2441.000000	7.779485	0.358303	8.926966
2442.000000	7.784197	0.365159	8.926966
2443.000000	7.788854	0.365247	8.926966
2444.000000	7.793462	0.342600	8.926966
2445.000000	7.797996	0.371510	8.926966
2446.000000	7.802442	0.354895	8.926966
2447.000000	7.806817	0.350805	8.926966
2448.000000	7.811129	0.366036	8.926966
2449.000000	7.815374	0.359292	8.926966
2450.000000	7.819530	0.369530	8.926966
2451.000000	7.823588	0.376249	8.926966
2452.000000	7.827581	0.357401	8.926966
2453.000000	7.831536	0.353647	8.926966
2454.000000	7.835443	0.376004	8.926966
2455.000000	7.839285	0.353891	8.926966
2456.000000	7.843069	0.360558	8.926966
2457.000000	7.846814	0.360424	8.926966
2458.000000	7.850513	0.354851	8.926966
2459.000000	7.854148	0.365324	8.926966
2460.000000	7.857699	0.377422	8.926966
2461.000000	7.861173	0.348099	8.926966
2462.000000	7.864588	0.358182	8.926966
2463.000000	7.867936	0.366630	8.926966
2464.000000	7.871213	0.375526	8.926966
2465.000000	7.874423	0.377247	8.926966
2466.000000	7.877560	0.373684	8.926966
2467.000000	7.880620	0.363190	8.926966
2468.000000	7.883608	0.366594	8.926966
2469.000000	7.886515	0.368282	8.926966
2470.000000	7.889323	0.375174	8.926966
2471.000000	7.892041	0.360036	8.926966
2472.000000	7.894699	0.366754	8.926966
2473.000000	7.897292	0.368093	8.926966
2474.000000	7.899797	0.347757	8.926966
2475.000000	7.902217	0.358176	8.926966
2476.000000	7.904574	0.352867	8.926966
2477.000000	7.906877	0.347799	8.926966
2478.000000	7.909109	0.364360	8.926966
2479.000000	7.911245	0.364782	8.926966
2480.000000	7.913280	0.344487	8.926966
2481.000000	7.915222	0.364887	8.926966
2482.000000	7.917088	0.354440	8.926966
2483.000000	7.918894	0.349257	8.926966
2484.000000	7.920626	0.344485	8.926966
2485.000000	7.922261	0.351336	8.926966
2486.000000	7.923800	0.335738	8.926966
2487.000000	7.925243	0.346115	8.926966
2488.000000	7.926570	0.351155	8.926966
2489.000000	7.927779	0.341134	8.926966
2490.000000	7.928892	0.346540	8.926966
2491.000000	7.929927	0.324100	8.926966
2492.000000	7.930888	0.318907	8.926966
2493.000000	7.931766	0.355017	8.926966
2494.000000	7.932560	0.324212	8.926966
2495.000000	7.933276	0.339832	8.926966
2496.000000	7.933921	0.322141	8.926966
2497.000000	7.934494	0.332891	8.926966
2498.000000	7.934978	0.324439	8.926966
2499.000000	7.935364	0.322443	8.926966
2500.000000	7.935673	0.310502	8.926966
2501.000000	7.935933	0.312295	8.926966
2502.000000	7.936146	0.302114	8.926966
2503.000000	7.936292	0.314233	8.926966
2504.000000	7.936355	0.300629	8.926966
2505.000000	7.936359	0.297432	8.926966
2506.000000	7.936326	0.302169	8.926966
2507.000000	7.936217	0.299046	8.926966
2508.000000	7.935991	0.312846	8.926966
2509.000000	7.935652	0.287325	8.926966
2510.000000	7.935227	0.294023	8.926966
2511.000000	7.934728	0.302640	8.926966
2512.000000	7.934143	0.292465	8.926966
2513.000000	7.933453	0.294422	8.926966
2514.000000	7.932661	0.294454	8.926966
2515.000000	7.931793	0.279102	8.926966
2516.000000	7.930858	0.278987	8.926966
2517.000000	7.929843	0.265498	8.926966
2518.000000	7.928726	0.264066	8.926966
2519.000000	7.927519	0.267502	8.926966
2520.000000	7.926267	0.264414	8.926966
2521.000000	7.924974	0.272435	8.926966
2522.000000	7.923610	0.257194	8.926966
2523.000000	7.922177	0.250184	8.926966
2524.000000	7.920717	0.255483	8.926966
2525.000000	7.919259	0.258880	8.926966
2526.000000	7.917802	0.255404	8.926966
2527.000000	7.916338	0.255484	8.926966
2528.000000	7.914869	0.254044	8.926966
2529.000000	7.913424	0.267240	8.926966
2530.000000	7.912033	0.241728	8.926966
2531.000000	7.910690	0.263815	8.926966
2532.000000	7.909388	0.252117	8.926966
2533.000000	7.908157	0.245371	8.926966
2534.000000	7.907018	0.250363	8.926966
2535.000000	7.905971	0.246922	8.926966
2536.000000	7.905006	0.247028	8.926966
2537.000000	7.904112	0.252327	8.926966
2538.000000	7.903291	0.224940	8.926966
2539.000000	7.902562	0.234900	8.926966
2540.000000	7.901917	0.219669	8.926966
2541.000000	7.901325	0.238798	8.926966
2542.000000	7.900779	0.230188	8.926966
2543.000000	7.900311	0.228412	8.926966
2544.000000	7.899931	0.223134	8.926966
2545.000000	7.899611	0.217977	8.926966
2546.000000	7.899333	0.218314	8.926966
2547.000000	7.899110	0.226832	8.926966
2548.000000	7.898954	0.214841	8.926966
2549.000000	7.898870	0.228255	8.926966
2550.000000	7.898834	0.238715	8.926966
2551.000000	7.898807	0.211469	8.926966
2552.000000	7.898800	0.213235	8.926966
2553.000000	7.898844	0.214579	8.926966
2554.000000	7.898951	0.235338	8.926966
2555.000000	7.899103	0.226575	8.926966
2556.000000	7.899257	0.219865	8.926966
2557.000000	7.899398	0.214777	8.926966
2558.000000	7.899559	0.194404	8.926966
2559.000000	7.899772	0.202549	8.926966
2560.000000	7.900021	0.211333	8.926966
2561.000000	7.900280	0.223579	8.926966
2562.000000	7.900552	0.201084	8.926966
2563.000000	7.900853	0.206089	8.926966
2564.000000	7.901186	0.202389	8.926966
2565.000000	7.901534	0.206242	8.926966
2566.000000	7.901882	0.224913	8.926966
2567.000000	7.902236	0.211509	8.926966
2568.000000	7.902615	0.185734	8.926966
2569.000000	7.903032	0.195691	8.926966
2570.000000	7.903456	0.192287	8.926966
2571.000000	7.903858	0.194121	8.926966
2572.000000	7.904252	0.192487	8.926966
2573.000000	7.904670	0.180364	8.926966
2574.000000	7.905109	0.202499	8.926966
2575.000000	7.905535	0.194075	8.926966
2576.000000	7.905937	0.190628	8.926966
2577.000000	7.906341	0.171909	8.926966
2578.000000	7.906770	0.175188	8.926966
2579.000000	7.907222	0.194016	8.926966
2580.000000	7.907677	0.205976	8.926966
2581.000000	7.908122	0.196039	8.926966
2582.000000	7.908563	0.180161	8.926966
2583.000000	7.909004	0.183658	8.926966
2584.000000	7.909435	0.194233	8.926966
2585.000000	7.909857	0.190692	8.926966
2586.000000	7.910280	0.171753	8.926966
2587.000000	7.910705	0.190437	8.926966
2588.000000	7.911118	0.201008	8.926966
2589.000000	7.911506	0.215944	8.926966
2590.000000	7.911869	0.168256	8.926966
2591.000000	7.912232	0.181937	8.926966
2592.000000	7.912601	0.185385	8.926966
2593.000000	7.912959	0.181991	8.926966
2594.000000	7.913285	0.181981	8.926966
2595.000000	7.913578	0.182080	8.926966
2596.000000	7.913864	0.178808	8.926966
2597.000000	7.914159	0.185146	8.926966
2598.000000	7.914440	0.180191	8.926966
2599.000000	7.914677	0.178590	8.926966
2600.000000	7.914880	0.178373	8.926966
2601.000000	7.915077	0.185230	8.926966
2602.000000	7.915275	0.174779	8.926966
2603.000000	7.915460	0.183352	8.926966
2604.000000	7.915627	0.169840	8.926966
2605.000000	7.915798	0.168247	8.926966
2606.000000	7.916004	0.169816	8.926966
2607.000000	7.916248	0.176334	8.926966
2608.000000	7.916508	0.178122	8.926966
2609.000000	7.916786	0.188287	8.926966
2610.000000	7.917103	0.173137	8.926966
2611.000000	7.917474	0.179885	8.926966
2612.000000	7.917911	0.176149	8.926966
2613.000000	7.918411	0.169336	8.926966
2614.000000	7.918953	0.201775	8.926966
2615.000000	7.919549	0.193356	8.926966
2616.000000	7.920228	0.184629	8.926966
2617.000000	7.921004	0.182689	8.926966
2618.000000	7.921877	0.172527	8.926966
2619.000000	7.922857	0.186261	8.926966
2620.000000	7.923955	0.174237	8.926966
2621.000000	7.925187	0.170454	8.926966
2622.000000	7.926557	0.185718	8.926966
2623.000000	7.928041	0.173716	8.926966
2624.000000	7.929624	0.196165	8.926966
2625.000000	7.931309	0.190612	8.926966
2626.000000	7.933095	0.185579	8.926966
2627.000000	7.934981	0.197405	8.926966
2628.000000	7.936953	0.187224	8.926966
2629.000000	7.939000	0.206239	8.926966
2630.000000	7.941129	0.183146	8.926966
2631.000000	7.943349	0.211179	8.926966
2632.000000	7.945647	0.198873	8.926966
2633.000000	7.948000	0.193804	8.926966
2634.000000	7.950402	0.207388	8.926966
2635.000000	7.952860	0.202071	8.926966
2636.000000	7.955372	0.203983	8.926966
2637.000000	7.957921	0.224174	8.926966
2638.000000	7.960477	0.207304	8.926966
2639.000000	7.963050	0.207198	8.926966
2640.000000	7.965670	0.200140	8.926966
2641.000000	7.968317	0.210380	8.926966
2642.000000	7.970952	0.218803	8.926966
2643.000000	7.973554	0.225923	8.926966
2644.000000	7.976133	0.207187	8.926966
2645.000000	7.978718	0.210290	8.926966
2646.000000	7.981301	0.215383	8.926966
2647.000000	7.983862	0.218898	8.926966
2648.000000	7.986383	0.227254	8.926966
2649.000000	7.988852	0.225573	8.926966
2650.000000	7.991286	0.225693	8.926966
2651.000000	7.993710	0.222010	8.926966
2652.000000	7.996112	0.235720	8.926966
2653.000000	7.998469	0.230504	8.926966
2654.000000	8.000785	0.213762	8.926966
2655.000000	8.003068	0.215182	8.926966
2656.000000	8.005307	0.228982	8.926966
2657.000000	8.007479	0.235740	8.926966
2658.000000	8.009577	0.230500	8.926966
2659.000000	8.011614	0.221810	8.926966
2660.000000	8.013601	0.220219	8.926966
2661.000000	8.015539	0.242346	8.926966
2662.000000	8.017414	0.244261	8.926966
2663.000000	8.019217	0.225384	8.926966
2664.000000	8.020959	0.235664	8.926966
2665.000000	8.022659	0.233845	8.926966
2666.000000	8.024321	0.226987	8.926966
2667.000000	8.025933	0.237287	8.926966
2668.000000	8.027487	0.240885	8.926966
2669.000000	8.029001	0.232025	8.926966
2670.000000	8.030500	0.238645	8.926966
2671.000000	8.031965	0.252738	8.926966
2672.000000	8.033365	0.242392	8.926966
2673.000000	8.034724	0.216264	8.926966
2674.000000	8.036080	0.237173	8.926966
2675.000000	8.037434	0.252047	8.926966
2676.000000	8.038767	0.236907	8.926966
2677.000000	8.040077	0.230169	8.926966
2678.000000	8.041382	0.236801	8.926966
2679.000000	8.042693	0.240307	8.926966
2680.000000	8.043997	0.252035	8.926966
2681.000000	8.045276	0.240370	8.926966
2682.000000	8.046534	0.230175	8.926966
2683.000000	8.047792	0.245545	8.926966
2684.000000	8.049061	0.235183	8.926966
2685.000000	8.050340	0.252200	8.926966
2686.000000	8.051616	0.233276	8.926966
2687.000000	8.052879	0.235080	8.926966
2688.000000	8.054121	0.221426	8.926966
2689.000000	8.055333	0.250590	8.926966
2690.000000	8.056493	0.246973	8.926966
2691.000000	8.057597	0.257394	8.926966
2692.000000	8.058661	0.238809	8.926966
2693.000000	8.059709	0.226533	8.926966
2694.000000	8.060743	0.238538	8.926966
2695.000000	8.061751	0.245457	8.926966
2696.000000	8.062733	0.253908	8.926966
2697.000000	8.063710	0.228068	8.926966
2698.000000	8.064684	0.243444	8.926966
2699.000000	8.065622	0.246494	8.926966
2700.000000	8.066510	0.241980	8.926966
2701.000000	8.067366	0.257144	8.926966
2702.000000	8.068211	0.234948	8.926966
2703.000000	8.069064	0.253737	8.926966
2704.000000	8.069918	0.245077	8.926966
2705.000000	8.070763	0.260613	8.926966
2706.000000	8.071615	0.236667	8.926966
2707.000000	8.072480	0.229457	8.926966
2708.000000	8.073348	0.272116	8.926966
2709.000000	8.074196	0.263711	8.926966
2710.000000	8.075007	0.263889	8.926966
2711.000000	8.075782	0.251780	8.926966
2712.000000	8.076543	0.251677	8.926966
2713.000000	8.077303	0.263254	8.926966
2714.000000	8.078043	0.260000	8.926966
2715.000000	8.078743	0.270446	8.926966
2716.000000	8.079419	0.246585	8.926966
2717.000000	8.080098	0.241276	8.926966
2718.000000	8.080774	0.265206	8.926966
2719.000000	8.081415	0.253228	8.926966
2720.000000	8.082006	0.282520	8.926966
2721.000000	8.082562	0.261976	8.926966
2722.000000	8.083097	0.246454	8.926966
2723.000000	8.083603	0.265055	8.926966
2724.000000	8.084069	0.244752	8.926966
2725.000000	8.084497	0.263760	8.926966
2726.000000	8.084890	0.248022	8.926966
2727.000000	8.085242	0.256565	8.926966
2728.000000	8.085538	0.268698	8.926966
2729.000000	8.085769	0.261954	8.926966
2730.000000	8.085959	0.255250	8.926966
2731.000000	8.086124	0.253446	8.926966
2732.000000	8.086250	0.253312	8.926966
2733.000000	8.086307	0.262040	8.926966
2734.000000	8.086290	0.245200	8.926966
2735.000000	8.086205	0.236474	8.926966
2736.000000	8.086026	0.249990	8.926966
2737.000000	8.085730	0.243346	8.926966
2738.000000	8.085337	0.262378	8.926966
2739.000000	8.084866	0.245367	8.926966
2740.000000	8.084335	0.236932	8.926966
2741.000000	8.083751	0.241844	8.926966
2742.000000	8.083096	0.239995	8.926966
2743.000000	8.082353	0.238584	8.926966
2744.000000	8.081528	0.245714	8.926966
2745.000000	8.080642	0.226860	8.926966
2746.000000	8.079715	0.237051	8.926966
2747.000000	8.078728	0.221591	8.926966
2748.000000	8.077647	0.222089	8.926966
2749.000000	8.076469	0.218787	8.926966
2750.000000	8.075230	0.220130	8.926966
2751.000000	8.073945	0.218475	8.926966
2752.000000	8.072587	0.230574	8.926966
2753.000000	8.071140	0.201795	8.926966
2754.000000	8.069620	0.199936	8.926966
2755.000000	8.068057	0.230688	8.926966
2756.000000	8.066448	0.232311	8.926966
2757.000000	8.064767	0.224281	8.926966
2758.000000	8.063020	0.212358	8.926966
2759.000000	8.061244	0.201903	8.926966
2760.000000	8.059460	0.203525	8.926966
2761.000000	8.057673	0.208962	8.926966
2762.000000	8.055877	0.224481	8.926966
2763.000000	8.054059	0.203690	8.926966
2764.000000	8.052226	0.207040	8.926966
2765.000000	8.050388	0.205741	8.926966
2766.000000	8.048540	0.214217	8.926966
2767.000000	8.046677	0.200538	8.926966
2768.000000	8.044807	0.202351	8.926966
2769.000000	8.042947	0.188600	8.926966
2770.000000	8.041096	0.207310	8.926966
2771.000000	8.039230	0.197352	8.926966
2772.000000	8.037345	0.187087	8.926966
2773.000000	8.035458	0.206153	8.926966
2774.000000	8.033593	0.183513	8.926966
2775.000000	8.031742	0.200755	8.926966
2776.000000	8.029880	0.188917	8.926966
2777.000000	8.028021	0.187246	8.926966
2778.000000	8.026200	0.166769	8.926966
2779.000000	8.024425	0.185443	8.926966
2780.000000	8.022675	0.194309	8.926966
2781.000000	8.020930	0.194415	8.926966
2782.000000	8.019200	0.199525	8.926966
2783.000000	8.017520	0.184062	8.926966
2784.000000	8.015898	0.192131	8.926966
2785.000000	8.014315	0.199217	8.926966
2786.000000	8.012770	0.197780	8.926966
2787.000000	8.011283	0.195797	8.926966
2788.000000	8.009879	0.192396	8.926966
2789.000000	8.008566	0.183627	8.926966
2790.000000	8.007337	0.192369	8.926966
2791.000000	8.006173	0.194389	8.926966
2792.000000	8.005073	0.185975	8.926966
2793.000000	8.004061	0.201072	8.926966
2794.000000	8.003137	0.192554	8.926966
2795.000000	8.002274	0.190536	8.926966
2796.000000	8.001452	0.207967	8.926966
2797.000000	8.000676	0.202948	8.926966
2798.000000	7.999963	0.187334	8.926966
2799.000000	7.999314	0.209715	8.926966
2800.000000	7.998705	0.201252	8.926966
2801.000000	7.998101	0.206378	8.926966
2802.000000	7.997505	0.196350	8.926966
2803.000000	7.996953	0.179025	8.926966
2804.000000	7.996453	0.206439	8.926966
2805.000000	7.995968	0.203094	8.926966
2806.000000	7.995479	0.208380	8.926966
2807.000000	7.995006	0.194540	8.926966
2808.000000	7.994577	0.197759	8.926966
2809.000000	7.994193	0.206204	8.926966
2810.000000	7.993833	0.208193	8.926966
2811.000000	7.993479	0.198038	8.926966
2812.000000	7.993141	0.196217	8.926966
2813.000000	7.992846	0.185950	8.926966
2814.000000	7.992589	0.189200	8.926966
2815.000000	7.992338	0.208303	8.926966
2816.000000	7.992094	0.187892	8.926966
2817.000000	7.991874	0.206458	8.926966
2818.000000	7.991685	0.194452	8.926966
2819.000000	7.991526	0.194482	8.926966
2820.000000	7.991390	0.197949	8.926966
2821.000000	7.991269	0.196447	8.926966
2822.000000	7.991182	0.205099	8.926966
2823.000000	7.991143	0.215037	8.926966
2824.000000	7.991128	0.218738	8.926966
2825.000000	7.991110	0.220443	8.926966
2826.000000	7.991080	0.199966	8.926966
2827.000000	7.991050	0.182788	8.926966
2828.000000	7.991025	0.217160	8.926966
2829.000000	7.990989	0.218617	8.926966
2830.000000	7.990936	0.191379	8.926966
2831.000000	7.990884	0.193154	8.926966
2832.000000	7.990847	0.194855	8.926966
2833.000000	7.990814	0.205259	8.926966
2834.000000	7.990755	0.201842	8.926966
2835.000000	7.990654	0.205554	8.926966
2836.000000	7.990507	0.193354	8.926966
2837.000000	7.990327	0.207019	8.926966
2838.000000	7.990122	0.195037	8.926966
2839.000000	7.989881	0.198553	8.926966
2840.000000	7.989611	0.197001	8.926966
2841.000000	7.989336	0.178102	8.926966
2842.000000	7.989082	0.179762	8.926966
2843.000000	7.988843	0.195302	8.926966
2844.000000	7.988592	0.202189	8.926966
2845.000000	7.988333	0.200360	8.926966
2846.000000	7.988094	0.188355	8.926966
2847.000000	7.987897	0.188234	8.926966
2848.000000	7.987735	0.186590	8.926966
2849.000000	7.987576	0.196947	8.926966
2850.000000	7.987415	0.197118	8.926966
2851.000000	7.987274	0.190232	8.926966
2852.000000	7.987171	0.186591	8.926966
2853.000000	7.987098	0.205191	8.926966
2854.000000	7.987043	0.192055	8.926966
2855.000000	7.987016	0.179807	8.926966
2856.000000	7.987026	0.178233	8.926966
2857.000000	7.987070	0.181489	8.926966
2858.000000	7.987134	0.202360	8.926966
2859.000000	7.987194	0.204042	8.926966
2860.000000	7.987259	0.173203	8.926966
2861.000000	7.987358	0.187027	8.926966
2862.000000	7.987492	0.192167	8.926966
2863.000000	7.987629	0.180006	8.926966
2864.000000	7.987740	0.199135	8.926966
2865.000000	7.987835	0.181866	8.926966
2866.000000	7.987949	0.181927	8.926966
2867.000000	7.988086	0.203912	8.926966
2868.000000	7.988218	0.195743	8.926966
2869.000000	7.988336	0.178899	8.926966
2870.000000	7.988464	0.173516	8.926966
2871.000000	7.988616	0.190462	8.926966
2872.000000	7.988775	0.187382	8.926966
2873.000000	7.988941	0.175319	8.926966
2874.000000	7.989124	0.163396	8.926966
2875.000000	7.989316	0.180413	8.926966
2876.000000	7.989497	0.180632	8.926966
2877.000000	7.989649	0.190791	8.926966
2878.000000	7.989767	0.175406	8.926966
2879.000000	7.989863	0.170343	8.926966
2880.000000	7.989953	0.153019	8.926966
2881.000000	7.990023	0.163451	8.926966
2882.000000	7.990044	0.163574	8.926966
2883.000000	7.990035	0.149961	8.926966
2884.000000	7.990022	0.169015	8.926966
2885.000000	7.989994	0.179001	8.926966
2886.000000	7.989920	0.170452	8.926966
2887.000000	7.989787	0.181256	8.926966
2888.000000	7.989604	0.153597	8.926966
2889.000000	7.989397	0.158816	8.926966
2890.000000	7.989177	0.158799	8.926966
2891.000000	7.988926	0.174482	8.926966
2892.000000	7.988635	0.169021	8.926966
2893.000000	7.988319	0.158916	8.926966
2894.000000	7.987977	0.155269	8.926966
2895.000000	7.987587	0.172628	8.926966
2896.000000	7.987158	0.164374	8.926966
2897.000000	7.986714	0.169462	8.926966
2898.000000	7.986261	0.162493	8.926966
2899.000000	7.985802	0.160717	8.926966
2900.000000	7.985341	0.171021	8.926966
2901.000000	7.984870	0.160526	8.926966
2902.000000	7.984386	0.167790	8.926966
2903.000000	7.983902	0.155784	8.926966
2904.000000	7.983424	0.155679	8.926966
2905.000000	7.982939	0.165760	8.926966
2906.000000	7.982437	0.159148	8.926966
2907.000000	7.981924	0.155788	8.926966
2908.000000	7.981423	0.169354	8.926966
2909.000000	7.980919	0.169558	8.926966
2910.000000	7.980387	0.157569	8.926966
2911.000000	7.979836	0.162911	8.926966
2912.000000	7.979290	0.150888	8.926966
2913.000000	7.978759	0.148771	8.926966
2914.000000	7.978238	0.145710	8.926966
2915.000000	7.977713	0.161183	8.926966
2916.000000	7.977173	0.137239	8.926966
2917.000000	7.976623	0.162961	8.926966
2918.000000	7.976076	0.147471	8.926966
2919.000000	7.975520	0.145635	8.926966
2920.000000	7.974938	0.152670	8.926966
2921.000000	7.974333	0.141044	8.926966
2922.000000	7.973729	0.142321	8.926966
2923.000000	7.973122	0.144057	8.926966
2924.000000	7.972480	0.156064	8.926966
2925.000000	7.971776	0.137491	8.926966
2926.000000	7.971023	0.146138	8.926966
2927.000000	7.970252	0.139161	8.926966
2928.000000	7.969474	0.142467	8.926966
2929.000000	7.968679	0.159830	8.926966
2930.000000	7.967875	0.129085	8.926966
2931.000000	7.967067	0.139217	8.926966
2932.000000	7.966243	0.120450	8.926966
2933.000000	7.965387	0.149441	8.926966
2934.000000	7.964491	0.141070	8.926966
2935.000000	7.963571	0.129335	8.926966
2936.000000	7.962640	0.125604	8.926966
2937.000000	7.961691	0.129187	8.926966
2938.000000	7.960726	0.129223	8.926966
2939.000000	7.959754	0.136297	8.926966
2940.000000	7.958780	0.120800	8.926966
2941.000000	7.957815	0.125874	8.926966
2942.000000	7.956863	0.129073	8.926966
2943.000000	7.955915	0.133127	8.926966
2944.000000	7.954961	0.141369	8.926966
2945.000000	7.954005	0.132954	8.926966
2946.000000	7.953077	0.125733	8.926966
2947.000000	7.952186	0.108690	8.926966
2948.000000	7.951329	0.127625	8.926966
2949.000000	7.950518	0.122717	8.926966
2950.000000	7.949776	0.113781	8.926966
2951.000000	7.949116	0.121998	8.926966
2952.000000	7.948520	0.122358	8.926966
2953.000000	7.947953	0.115623	8.926966
2954.000000	7.947402	0.122500	8.926966
2955.000000	7.946882	0.110463	8.926966
2956.000000	7.946405	0.118969	8.926966
2957.000000	7.945952	0.112560	8.926966
2958.000000	7.945507	0.117457	8.926966
2959.000000	7.945076	0.119139	8.926966
2960.000000	7.944672	0.096724	8.926966
2961.000000	7.944299	0.117111	8.926966
2962.000000	7.943941	0.114305	8.926966
2963.000000	7.943578	0.107328	8.926966
2964.000000	7.943205	0.117614	8.926966
2965.000000	7.942828	0.084903	8.926966
2966.000000	7.942452	0.105528	8.926966
2967.000000	7.942065	0.090168	8.926966
2968.000000	7.941643	0.107377	8.926966
2969.000000	7.941182	0.093869	8.926966
2970.000000	7.940715	0.112634	8.926966
2971.000000	7.940250	0.112238	8.926966
2972.000000	7.939747	0.103890	8.926966
2973.000000	7.939177	0.100727	8.926966
2974.000000	7.938555	0.107462	8.926966
2975.000000	7.937901	0.112723	8.926966
2976.000000	7.937210	0.107584	8.926966
2977.000000	7.936455	0.107809	8.926966
2978.000000	7.935627	0.092477	8.926966
2979.000000	7.934751	0.104648	8.926966
2980.000000	7.933849	0.090975	8.926966
2981.000000	7.932907	0.104413	8.926966
2982.000000	7.931904	0.106260	8.926966
2983.000000	7.930834	0.084375	8.926966
2984.000000	7.929711	0.085753	8.926966
2985.000000	7.928545	0.099488	8.926966
2986.000000	7.927329	0.103027	8.926966
2987.000000	7.926054	0.074026	8.926966
2988.000000	7.924726	0.084450	8.926966
2989.000000	7.923355	0.069027	8.926966
2990.000000	7.921945	0.063861	8.926966
2991.000000	7.920484	0.079295	8.926966
2992.000000	7.918976	0.077832	8.926966
2993.000000	7.917442	0.070901	8.926966
2994.000000	7.915892	0.091346	8.926966
2995.000000	7.914336	0.077931	8.926966
2996.000000	7.912786	0.071068	8.926966
2997.000000	7.911224	0.069086	8.926966
2998.000000	7.909635	0.076426	8.926966
2999.000000	7.908058	0.053884	8.926966
3000.000000	7.906519	0.069381	8.926966
3001.000000	7.904999	0.074505	8.926966
3002.000000	7.903474	0.076099	8.926966
3003.000000	7.901936	0.079872	8.926966
3004.000000	7.900404	0.059422	8.926966
3005.000000	7.898905	0.081534	8.926966
