0.000000	17.020251	0.023938	100.000000
1.000000	16.887678	0.001824	100.000000
2.000000	16.637054	0.013465	100.000000
3.000000	16.284764	0.018610	100.000000
4.000000	15.846029	0.008465	100.000000
5.000000	15.334909	0.022466	100.000000
6.000000	14.764304	-0.004881	100.000000
7.000000	14.146002	0.008618	100.000000
8.000000	13.490739	-0.005383	100.000000
9.000000	12.808221	-3.591600E-5	100.000000
10.000000	12.107195	0.001586	100.000000
11.000000	11.395506	0.006525	100.000000
12.000000	10.680125	0.013640	100.000000
13.000000	9.967177	-0.001851	100.000000
14.000000	9.262011	0.018844	100.000000
15.000000	8.569286	0.003217	100.000000
16.000000	7.893002	0.010265	100.000000
17.000000	7.236540	0.010196	100.000000
18.000000	6.602696	0.005273	100.000000
19.000000	5.993734	0.013605	100.000000
20.000000	5.411461	0.011597	100.000000
21.000000	4.857258	0.010176	100.000000
22.000000	4.332112	0.008442	100.000000
23.000000	3.836647	0.022368	100.000000
24.000000	3.371158	0.005162	100.000000
25.000000	2.935677	0.003079	100.000000
26.000000	2.530021	-0.003498	100.000000
27.000000	2.153789	0.017034	100.000000
28.000000	1.806379	-0.006881	100.000000
29.000000	1.487024	-0.015428	100.000000
30.000000	1.194824	0.009787	100.000000
31.000000	0.928790	-0.005330	100.000000
32.000000	0.687859	0.013687	100.000000
33.000000	0.470884	0.006737	100.000000
34.000000	0.276672	0.005227	100.000000
35.000000	0.103985	-0.001642	100.000000
36.000000	-0.048449	0.010327	100.000000
37.000000	-0.181894	0.008331	100.000000
38.000000	-0.297594	0.005173	100.000000
39.000000	-0.396786	-0.006770	100.000000
40.000000	-0.480705	0.003272	100.000000
41.000000	-0.550565	4.328035E-5	100.000000
42.000000	-0.607539	0.006780	100.000000
43.000000	-0.652735	-0.000440	100.000000
44.000000	-0.687206	0.018928	100.000000
45.000000	-0.711979	0.006841	100.000000
46.000000	-0.728056	0.006889	100.000000
47.000000	-0.736380	-0.003636	100.000000
48.000000	-0.737833	0.003270	100.000000
49.000000	-0.733249	0.010098	100.000000
50.000000	-0.723387	0.015277	100.000000
51.000000	-0.708942	0.010338	100.000000
52.000000	-0.690592	-0.013766	100.000000
53.000000	-0.668987	-9.999783E-5	100.000000
54.000000	-0.644704	0.008315	100.000000
55.000000	-0.618236	0.016987	100.000000
56.000000	-0.590042	0.006642	100.000000
57.000000	-0.560570	0.003481	100.000000
58.000000	-0.530236	-0.012395	100.000000
59.000000	-0.499390	-0.010532	100.000000
60.000000	-0.468329	0.003488	100.000000
61.000000	-0.437312	0.005146	100.000000
62.000000	-0.406581	0.006734	100.000000
63.000000	-0.376366	9.314593E-5	100.000000
64.000000	-0.346860	-0.005364	100.000000
65.000000	-0.318194	-0.005343	100.000000
66.000000	-0.290469	0.008595	100.000000
67.000000	-0.263791	0.003261	100.000000
68.000000	-0.238265	0.003351	100.000000
69.000000	-0.213969	-0.005258	100.000000
70.000000	-0.190941	-0.010378	100.000000
71.000000	-0.169193	0.008544	100.000000
72.000000	-0.148732	-0.001840	100.000000
73.000000	-0.129563	-0.001394	100.000000
74.000000	-0.111695	-0.003372	100.000000
75.000000	-0.095133	0.006898	100.000000
76.000000	-0.079849	-0.005101	100.000000
77.000000	-0.065794	0.003236	100.000000
78.000000	-0.052918	-3.739105E-5	100.000000
79.000000	-0.041187	9.935219E-5	100.000000
80.000000	-0.030568	-0.013799	100.000000
81.000000	-0.021010	-0.008650	100.000000
82.000000	-0.012440	0.003264	100.000000
83.000000	-0.004788	-0.001819	100.000000
84.000000	0.001990	0.008672	100.000000
85.000000	0.007927	-0.011853	100.000000
86.000000	0.013065	-0.000152	100.000000
87.000000	0.017460	-0.012108	100.000000
88.000000	0.021180	-0.003787	100.000000
89.000000	0.024293	0.006848	100.000000
90.000000	0.026863	-0.011987	100.000000
91.000000	0.028921	-0.010244	100.000000
92.000000	0.030489	0.003204	100.000000
93.000000	0.031615	-0.012109	100.000000
94.000000	0.032366	0.005131	100.000000
95.000000	0.032796	-5.971787E-5	100.000000
96.000000	0.032938	0.010178	100.000000
97.000000	0.032821	-0.010373	100.000000
98.000000	0.032474	-0.000185	100.000000
99.000000	0.031924	0.003690	100.000000
100.000000	0.031193	-0.007001	100.000000
101.000000	0.030302	-0.010256	100.000000
102.000000	0.029277	-0.022085	100.000000
103.000000	0.028150	-0.015556	100.000000
104.000000	0.026963	-0.005262	100.000000
105.000000	0.025745	0.010347	100.000000
106.000000	0.024491	-0.008439	100.000000
107.000000	0.023190	-0.006625	100.000000
108.000000	0.021853	0.010004	100.000000
109.000000	0.020515	-0.015350	100.000000
110.000000	0.019205	0.013816	100.000000
111.000000	0.017935	0.015532	100.000000
112.000000	0.016695	-0.010087	100.000000
113.000000	0.015470	-0.010033	100.000000
114.000000	0.014255	-0.005016	100.000000
115.000000	0.013073	0.003392	100.000000
116.000000	0.011948	-0.011827	100.000000
117.000000	0.010887	-0.004868	100.000000
118.000000	0.009874	-0.006634	100.000000
119.000000	0.008889	0.003461	100.000000
120.000000	0.007935	-0.008567	100.000000
121.000000	0.007027	-0.006740	100.000000
122.000000	0.006183	0.011852	100.000000
123.000000	0.005410	-0.005065	100.000000
124.000000	0.004705	-0.003301	100.000000
125.000000	0.004042	-0.011874	100.000000
126.000000	0.003408	-0.018831	100.000000
127.000000	0.002814	0.001578	100.000000
128.000000	0.002269	0.015500	100.000000
129.000000	0.001773	0.005252	100.000000
130.000000	0.001317	-0.008310	100.000000
131.000000	0.000890	-0.010234	100.000000
132.000000	0.000492	-0.015549	100.000000
133.000000	0.000145	-0.024122	100.000000
134.000000	-0.000133	-0.006791	100.000000
135.000000	-0.000357	-0.003457	100.000000
136.000000	-0.000551	0.001757	100.000000
137.000000	-0.000731	-0.008810	100.000000
138.000000	-0.000890	-0.015322	100.000000
139.000000	-0.001003	0.011897	100.000000
140.000000	-0.001057	-0.020653	100.000000
141.000000	-0.001059	-0.005068	100.000000
142.000000	-0.001037	0.006828	100.000000
143.000000	-0.001013	-0.005114	100.000000
144.000000	-0.000990	-0.011979	100.000000
145.000000	-0.000947	-0.017086	100.000000
146.000000	-0.000878	-0.006612	100.000000
147.000000	-0.000797	-0.022087	100.000000
148.000000	-0.000715	-0.005057	100.000000
149.000000	-0.000644	0.005087	100.000000
150.000000	-0.000569	0.005206	100.000000
151.000000	-0.000466	0.001815	100.000000
152.000000	-0.000343	-0.013551	100.000000
153.000000	-0.000230	-0.013691	100.000000
154.000000	-0.000144	-0.013974	100.000000
155.000000	-6.630556E-5	-0.003421	100.000000
156.000000	3.046822E-5	0.000120	100.000000
157.000000	0.000145	0.003580	100.000000
158.000000	0.000261	0.003610	100.000000
159.000000	0.000363	-0.010112	100.000000
160.000000	0.000451	-0.008604	100.000000
161.000000	0.000529	-0.001714	100.000000
162.000000	0.000597	0.001737	100.000000
163.000000	0.000659	-0.001396	100.000000
164.000000	0.000728	-0.006689	100.000000
165.000000	0.000790	-0.011870	100.000000
166.000000	0.000824	-0.012197	100.000000
167.000000	0.000843	-0.020503	100.000000
168.000000	0.000872	0.000115	100.000000
169.000000	0.000916	-0.010101	100.000000
170.000000	0.000951	-0.016840	100.000000
171.000000	0.000970	-0.003346	100.000000
172.000000	0.000986	-0.013721	100.000000
173.000000	0.001004	-0.005226	100.000000
174.000000	0.001028	-0.005189	100.000000
175.000000	0.001076	-0.011969	100.000000
176.000000	0.001150	-0.011948	100.000000
177.000000	0.001217	-0.027449	100.000000
178.000000	0.001270	0.006612	100.000000
179.000000	0.001329	0.003438	100.000000
180.000000	0.001407	0.005371	100.000000
181.000000	0.001495	-0.011907	100.000000
182.000000	0.001561	-0.011880	100.000000
183.000000	0.001584	-0.012127	100.000000
184.000000	0.001577	-0.012033	100.000000
185.000000	0.001559	-0.020384	100.000000
186.000000	0.001547	0.001867	100.000000
187.000000	0.001542	-0.001680	100.000000
188.000000	0.001532	-0.003261	100.000000
189.000000	0.001509	-0.020523	100.000000
190.000000	0.001463	-0.007146	100.000000
191.000000	0.001414	0.001614	100.000000
192.000000	0.001394	0.008890	100.000000
193.000000	0.001397	0.000192	100.000000
194.000000	0.001381	-0.017057	100.000000
195.000000	0.001334	-0.020581	100.000000
196.000000	0.001290	-0.001622	100.000000
197.000000	0.001257	0.003686	100.000000
198.000000	0.001230	-0.010280	100.000000
199.000000	0.001230	-0.010091	100.000000
200.000000	0.001248	-0.015616	100.000000
201.000000	0.001252	-0.008595	100.000000
202.000000	0.001244	0.003293	100.000000
203.000000	0.001233	-0.003194	100.000000
204.000000	0.001207	-0.005083	100.000000
205.000000	0.001161	-0.005336	100.000000
206.000000	0.001103	-0.013772	100.000000
207.000000	0.001044	-0.015381	100.000000
208.000000	0.000998	-0.016974	100.000000
209.000000	0.000972	-0.011691	100.000000
210.000000	0.000960	-0.013782	100.000000
211.000000	0.000952	-0.010407	100.000000
212.000000	0.000930	-0.027268	100.000000
213.000000	0.000904	-0.022271	100.000000
214.000000	0.000884	-0.004955	100.000000
215.000000	0.000850	-0.005047	100.000000
216.000000	0.000789	-0.007083	100.000000
217.000000	0.000709	-0.005413	100.000000
218.000000	0.000627	0.005140	100.000000
219.000000	0.000560	-0.010020	100.000000
220.000000	0.000508	-0.004937	100.000000
221.000000	0.000444	-0.018656	100.000000
222.000000	0.000357	-0.010316	100.000000
223.000000	0.000281	-0.018848	100.000000
224.000000	0.000241	-0.020267	100.000000
225.000000	0.000223	-0.028939	100.000000
226.000000	0.000214	-0.005099	100.000000
227.000000	0.000203	-0.034307	100.000000
228.000000	0.000191	-0.023960	100.000000
229.000000	0.000183	-0.001804	100.000000
230.000000	0.000176	-0.016960	100.000000
231.000000	0.000178	-0.021995	100.000000
232.000000	0.000189	-0.023950	100.000000
233.000000	0.000195	-0.032652	100.000000
234.000000	0.000210	0.004938	100.000000
235.000000	0.000265	0.003566	100.000000
236.000000	0.000339	-0.025613	100.000000
237.000000	0.000392	-0.039354	100.000000
238.000000	0.000407	-0.032301	100.000000
239.000000	0.000387	-0.012125	100.000000
240.000000	0.000373	-0.034054	100.000000
241.000000	0.000404	-0.015206	100.000000
242.000000	0.000470	-0.028881	100.000000
243.000000	0.000538	-0.020304	100.000000
244.000000	0.000592	-0.017285	100.000000
245.000000	0.000646	-0.024004	100.000000
246.000000	0.000709	-0.012016	100.000000
247.000000	0.000778	-0.013368	100.000000
248.000000	0.000842	-0.030469	100.000000
249.000000	0.000892	-0.006783	100.000000
250.000000	0.000920	-0.015128	100.000000
251.000000	0.000939	-0.011825	100.000000
252.000000	0.000983	-0.011812	100.000000
253.000000	0.001062	-0.027183	100.000000
254.000000	0.001148	-0.030352	100.000000
255.000000	0.001223	-0.015219	100.000000
256.000000	0.001296	-0.027386	100.000000
257.000000	0.001371	-0.033960	100.000000
258.000000	0.001459	-0.013181	100.000000
259.000000	0.001568	-0.026984	100.000000
260.000000	0.001687	-0.030608	100.000000
261.000000	0.001819	-0.020382	100.000000
262.000000	0.001985	-0.040776	100.000000
263.000000	0.002198	-0.025419	100.000000
264.000000	0.002446	-0.033941	100.000000
265.000000	0.002698	-0.013246	100.000000
266.000000	0.002933	-0.037504	100.000000
267.000000	0.003170	-0.037497	100.000000
268.000000	0.003423	-0.042680	100.000000
269.000000	0.003686	-0.023718	100.000000
270.000000	0.003939	-0.033582	100.000000
271.000000	0.004169	-0.040811	100.000000
272.000000	0.004391	-0.032330	100.000000
273.000000	0.004613	-0.028781	100.000000
274.000000	0.004839	-0.045536	100.000000
275.000000	0.005067	-0.052804	100.000000
276.000000	0.005283	-0.054283	100.000000
277.000000	0.005472	-0.035381	100.000000
278.000000	0.005646	-0.025552	100.000000
279.000000	0.005840	-0.045954	100.000000
280.000000	0.006072	-0.038725	100.000000
281.000000	0.006321	-0.042427	100.000000
282.000000	0.006557	-0.055781	100.000000
283.000000	0.006771	-0.039038	100.000000
284.000000	0.006973	-0.057700	100.000000
285.000000	0.007176	-0.054061	100.000000
286.000000	0.007384	-0.049128	100.000000
287.000000	0.007573	-0.052413	100.000000
288.000000	0.007726	-0.063038	100.000000
289.000000	0.007872	-0.052649	100.000000
290.000000	0.008051	-0.043795	100.000000
291.000000	0.008268	-0.059004	100.000000
292.000000	0.008516	-0.054089	100.000000
293.000000	0.008791	-0.030221	100.000000
294.000000	0.009085	-0.071275	100.000000
295.000000	0.009396	-0.052191	100.000000
296.000000	0.009718	-0.057230	100.000000
297.000000	0.010039	-0.057521	100.000000
298.000000	0.010357	-0.052152	100.000000
299.000000	0.010672	-0.064482	100.000000
300.000000	0.010979	-0.055744	100.000000
301.000000	0.011300	-0.048931	100.000000
302.000000	0.011659	-0.041824	100.000000
303.000000	0.012043	-0.051875	100.000000
304.000000	0.012432	-0.088278	100.000000
305.000000	0.012821	-0.054140	100.000000
306.000000	0.013225	-0.062450	100.000000
307.000000	0.013641	-0.062249	100.000000
308.000000	0.014055	-0.057199	100.000000
309.000000	0.014474	-0.075939	100.000000
310.000000	0.014898	-0.055672	100.000000
311.000000	0.015325	-0.063631	100.000000
312.000000	0.015771	-0.067449	100.000000
313.000000	0.016236	-0.079311	100.000000
314.000000	0.016717	-0.075954	100.000000
315.000000	0.017200	-0.076087	100.000000
316.000000	0.017679	-0.091491	100.000000
317.000000	0.018175	-0.087983	100.000000
318.000000	0.018695	-0.081140	100.000000
319.000000	0.019240	-0.062028	100.000000
320.000000	0.019809	-0.087917	100.000000
321.000000	0.020376	-0.101449	100.000000
322.000000	0.020941	-0.079529	100.000000
323.000000	0.021535	-0.070950	100.000000
324.000000	0.022188	-0.070494	100.000000
325.000000	0.022884	-0.099550	100.000000
326.000000	0.023583	-0.091163	100.000000
327.000000	0.024275	-0.087897	100.000000
328.000000	0.024981	-0.084186	100.000000
329.000000	0.025729	-0.077213	100.000000
330.000000	0.026514	-0.087597	100.000000
331.000000	0.027311	-0.085775	100.000000
332.000000	0.028103	-0.111798	100.000000
333.000000	0.028895	-0.092715	100.000000
334.000000	0.029709	-0.082287	100.000000
335.000000	0.030550	-0.083966	100.000000
336.000000	0.031406	-0.090719	100.000000
337.000000	0.032274	-0.080554	100.000000
338.000000	0.033161	-0.097684	100.000000
339.000000	0.034084	-0.090799	100.000000
340.000000	0.035068	-0.089140	100.000000
341.000000	0.036112	-0.083731	100.000000
342.000000	0.037209	-0.100746	100.000000
343.000000	0.038336	-0.097401	100.000000
344.000000	0.039485	-0.092392	100.000000
345.000000	0.040667	-0.105898	100.000000
346.000000	0.041885	-0.104167	100.000000
347.000000	0.043134	-0.091938	100.000000
348.000000	0.044405	-0.098829	100.000000
349.000000	0.045700	-0.088795	100.000000
350.000000	0.047042	-0.093684	100.000000
351.000000	0.048430	-0.097015	100.000000
352.000000	0.049836	-0.095259	100.000000
353.000000	0.051250	-0.100508	100.000000
354.000000	0.052691	-0.107144	100.000000
355.000000	0.054179	-0.093480	100.000000
356.000000	0.055729	-0.091516	100.000000
357.000000	0.057332	-0.107096	100.000000
358.000000	0.058968	-0.100153	100.000000
359.000000	0.060628	-0.102112	100.000000
360.000000	0.062325	-0.108894	100.000000
361.000000	0.064080	-0.098060	100.000000
362.000000	0.065885	-0.110026	100.000000
363.000000	0.067712	-0.115393	100.000000
364.000000	0.069552	-0.096211	100.000000
365.000000	0.071416	-0.110062	100.000000
366.000000	0.073318	-0.101660	100.000000
367.000000	0.075262	-0.099756	100.000000
368.000000	0.077238	-0.109972	100.000000
369.000000	0.079225	-0.104762	100.000000
370.000000	0.081217	-0.106663	100.000000
371.000000	0.083228	-0.114940	100.000000
372.000000	0.085269	-0.094020	100.000000
373.000000	0.087341	-0.095751	100.000000
374.000000	0.089431	-0.124895	100.000000
375.000000	0.091522	-0.113194	100.000000
376.000000	0.093626	-0.106408	100.000000
377.000000	0.095764	-0.102620	100.000000
378.000000	0.097925	-0.104076	100.000000
379.000000	0.100090	-0.109446	100.000000
380.000000	0.102243	-0.122794	100.000000
381.000000	0.104393	-0.111363	100.000000
382.000000	0.106555	-0.105761	100.000000
383.000000	0.108741	-0.116166	100.000000
384.000000	0.110947	-0.120973	100.000000
385.000000	0.113142	-0.112762	100.000000
386.000000	0.115319	-0.109101	100.000000
387.000000	0.117500	-0.131266	100.000000
388.000000	0.119691	-0.115978	100.000000
389.000000	0.121887	-0.113849	100.000000
390.000000	0.124091	-0.136252	100.000000
391.000000	0.126290	-0.122430	100.000000
392.000000	0.128480	-0.127462	100.000000
393.000000	0.130667	-0.117258	100.000000
394.000000	0.132862	-0.118936	100.000000
395.000000	0.135066	-0.125330	100.000000
396.000000	0.137267	-0.130800	100.000000
397.000000	0.139454	-0.116874	100.000000
398.000000	0.141625	-0.127399	100.000000
399.000000	0.143799	-0.132179	100.000000
400.000000	0.146006	-0.121840	100.000000
401.000000	0.148247	-0.121742	100.000000
402.000000	0.150510	-0.149283	100.000000
403.000000	0.152793	-0.118460	100.000000
404.000000	0.155114	-0.119916	100.000000
405.000000	0.157484	-0.136604	100.000000
406.000000	0.159889	-0.131542	100.000000
407.000000	0.162307	-0.121192	100.000000
408.000000	0.164726	-0.136972	100.000000
409.000000	0.167155	-0.131693	100.000000
410.000000	0.169605	-0.141697	100.000000
411.000000	0.172068	-0.136678	100.000000
412.000000	0.174541	-0.132990	100.000000
413.000000	0.177026	-0.136322	100.000000
414.000000	0.179506	-0.156863	100.000000
415.000000	0.181950	-0.145000	100.000000
416.000000	0.184359	-0.136343	100.000000
417.000000	0.186772	-0.134549	100.000000
418.000000	0.189204	-0.149633	100.000000
419.000000	0.191636	-0.149808	100.000000
420.000000	0.194067	-0.149818	100.000000
421.000000	0.196513	-0.130737	100.000000
422.000000	0.198998	-0.163245	100.000000
423.000000	0.201523	-0.151130	100.000000
424.000000	0.204064	-0.157907	100.000000
425.000000	0.206606	-0.168222	100.000000
426.000000	0.209151	-0.164828	100.000000
427.000000	0.211697	-0.136890	100.000000
428.000000	0.214230	-0.164413	100.000000
429.000000	0.216767	-0.164298	100.000000
430.000000	0.219314	-0.154326	100.000000
431.000000	0.221863	-0.159188	100.000000
432.000000	0.224428	-0.169336	100.000000
433.000000	0.227023	-0.157479	100.000000
434.000000	0.229653	-0.165886	100.000000
435.000000	0.232316	-0.162384	100.000000
436.000000	0.234999	-0.170977	100.000000
437.000000	0.237707	-0.162452	100.000000
438.000000	0.240471	-0.152050	100.000000
439.000000	0.243307	-0.174013	100.000000
440.000000	0.246192	-0.177395	100.000000
441.000000	0.249106	-0.174072	100.000000
442.000000	0.252064	-0.184484	100.000000
443.000000	0.255095	-0.158404	100.000000
444.000000	0.258214	-0.161552	100.000000
445.000000	0.261421	-0.163348	100.000000
446.000000	0.264712	-0.180258	100.000000
447.000000	0.268077	-0.159644	100.000000
448.000000	0.271505	-0.171532	100.000000
449.000000	0.274996	-0.168162	100.000000
450.000000	0.278572	-0.168020	100.000000
451.000000	0.282249	-0.145395	100.000000
452.000000	0.286027	-0.162716	100.000000
453.000000	0.289882	-0.176212	100.000000
454.000000	0.293787	-0.169343	100.000000
455.000000	0.297754	-0.158966	100.000000
456.000000	0.301812	-0.150300	100.000000
457.000000	0.305944	-0.169120	100.000000
458.000000	0.310107	-0.177798	100.000000
459.000000	0.314299	-0.167399	100.000000
460.000000	0.318551	-0.170529	100.000000
461.000000	0.322876	-0.179213	100.000000
462.000000	0.327261	-0.159935	100.000000
463.000000	0.331699	-0.178848	100.000000
464.000000	0.336179	-0.177101	100.000000
465.000000	0.340686	-0.185450	100.000000
466.000000	0.345218	-0.156527	100.000000
467.000000	0.349794	-0.169863	100.000000
468.000000	0.354416	-0.161305	100.000000
469.000000	0.359066	-0.179987	100.000000
470.000000	0.363719	-0.173118	100.000000
471.000000	0.368377	-0.180140	100.000000
472.000000	0.373069	-0.169649	100.000000
473.000000	0.377806	-0.157285	100.000000
474.000000	0.382577	-0.174235	100.000000
475.000000	0.387382	-0.160659	100.000000
476.000000	0.392223	-0.179370	100.000000
477.000000	0.397096	-0.165609	100.000000
478.000000	0.402016	-0.167273	100.000000
479.000000	0.407002	-0.168656	100.000000
480.000000	0.412047	-0.178859	100.000000
481.000000	0.417121	-0.180505	100.000000
482.000000	0.422199	-0.182281	100.000000
483.000000	0.427292	-0.163440	100.000000
484.000000	0.432430	-0.159471	100.000000
485.000000	0.437616	-0.185082	100.000000
486.000000	0.442837	-0.159213	100.000000
487.000000	0.448074	-0.167770	100.000000
488.000000	0.453322	-0.179755	100.000000
489.000000	0.458597	-0.177777	100.000000
490.000000	0.463916	-0.179080	100.000000
491.000000	0.469287	-0.175538	100.000000
492.000000	0.474706	-0.165468	100.000000
493.000000	0.480151	-0.172305	100.000000
494.000000	0.485606	-0.182360	100.000000
495.000000	0.491094	-0.174991	100.000000
496.000000	0.496639	-0.168334	100.000000
497.000000	0.502241	-0.168178	100.000000
498.000000	0.507884	-0.171562	100.000000
499.000000	0.513564	-0.168158	100.000000
500.000000	0.519301	-0.177990	100.000000
501.000000	0.525130	-0.162473	100.000000
502.000000	0.531063	-0.166962	100.000000
503.000000	0.537074	-0.174040	100.000000
504.000000	0.543166	-0.194476	100.000000
505.000000	0.549376	-0.154832	100.000000
506.000000	0.555742	-0.158176	100.000000
507.000000	0.562279	-0.161306	100.000000
508.000000	0.568949	-0.171134	100.000000
509.000000	0.575726	-0.159187	100.000000
510.000000	0.582636	-0.152058	100.000000
511.000000	0.589713	-0.156695	100.000000
512.000000	0.596973	-0.146270	100.000000
513.000000	0.604409	-0.152874	100.000000
514.000000	0.611988	-0.139011	100.000000
515.000000	0.619694	-0.147487	100.000000
516.000000	0.627554	-0.136889	100.000000
517.000000	0.635602	-0.121096	100.000000
518.000000	0.643833	-0.129342	100.000000
519.000000	0.652221	-0.134577	100.000000
520.000000	0.660764	-0.127720	100.000000
521.000000	0.669499	-0.118689	100.000000
522.000000	0.678456	-0.123581	100.000000
523.000000	0.687616	-0.112834	100.000000
524.000000	0.696957	-0.121111	100.000000
525.000000	0.706460	-0.112923	100.000000
526.000000	0.716119	-0.105870	100.000000
527.000000	0.725921	-0.089144	100.000000
528.000000	0.735847	-0.086725	100.000000
529.000000	0.745886	-0.101647	100.000000
530.000000	0.756033	-0.082544	100.000000
531.000000	0.766292	-0.097556	100.000000
532.000000	0.776697	-0.080275	100.000000
533.000000	0.787304	-0.067755	100.000000
534.000000	0.798133	-0.079425	100.000000
535.000000	0.809169	-0.080264	100.000000
536.000000	0.820401	-0.069835	100.000000
537.000000	0.831824	-0.078632	100.000000
538.000000	0.843437	-0.071479	100.000000
539.000000	0.855205	-0.076230	100.000000
540.000000	0.867053	-0.077904	100.000000
541.000000	0.878908	-0.091067	100.000000
542.000000	0.890704	-0.077567	100.000000
543.000000	0.902396	-0.063269	100.000000
544.000000	0.913958	-0.068452	100.000000
545.000000	0.925365	-0.075103	100.000000
546.000000	0.936582	-0.057524	100.000000
547.000000	0.947565	-0.074815	100.000000
548.000000	0.958286	-0.083236	100.000000
549.000000	0.968755	-0.065738	100.000000
550.000000	0.978993	-0.074081	100.000000
551.000000	0.989019	-0.070481	100.000000
552.000000	0.998859	-0.070033	100.000000
553.000000	1.008536	-0.064573	100.000000
554.000000	1.018071	-0.079957	100.000000
555.000000	1.027497	-0.053892	100.000000
556.000000	1.036850	-0.081071	100.000000
557.000000	1.046145	-0.028982	100.000000
558.000000	1.055372	-0.051478	100.000000
559.000000	1.064535	-0.030761	100.000000
560.000000	1.073665	-0.023517	100.000000
561.000000	1.082776	-0.023393	100.000000
562.000000	1.091866	-0.031542	100.000000
563.000000	1.100924	-0.038294	100.000000
564.000000	1.109931	-0.015715	100.000000
565.000000	1.118882	-0.027587	100.000000
566.000000	1.127805	-0.030938	100.000000
567.000000	1.136719	-0.039021	100.000000
568.000000	1.145600	-0.026780	100.000000
569.000000	1.154394	-0.038211	100.000000
570.000000	1.163068	-0.023060	100.000000
571.000000	1.171638	-0.021438	100.000000
572.000000	1.180130	-0.028010	100.000000
573.000000	1.188550	-0.029366	100.000000
574.000000	1.196883	-0.056609	100.000000
575.000000	1.205109	-0.037768	100.000000
576.000000	1.213228	-0.036229	100.000000
577.000000	1.221254	-0.016614	100.000000
578.000000	1.229205	-0.011273	100.000000
579.000000	1.237085	-0.041929	100.000000
580.000000	1.244890	-0.028139	100.000000
581.000000	1.252611	-0.048497	100.000000
582.000000	1.260254	-0.027613	100.000000
583.000000	1.267843	-0.010656	100.000000
584.000000	1.275397	-0.030659	100.000000
585.000000	1.282917	-0.035686	100.000000
586.000000	1.290397	-0.021896	100.000000
587.000000	1.297812	-0.038933	100.000000
588.000000	1.305144	-0.018219	100.000000
589.000000	1.312396	-0.023356	100.000000
590.000000	1.319584	-0.033229	100.000000
591.000000	1.326682	-0.021124	100.000000
592.000000	1.333648	-0.043214	100.000000
593.000000	1.340474	-0.021067	100.000000
594.000000	1.347179	-0.026044	100.000000
595.000000	1.353771	-0.011927	100.000000
596.000000	1.360246	-0.027358	100.000000
597.000000	1.366583	-0.035796	100.000000
598.000000	1.372766	-0.020457	100.000000
599.000000	1.378829	-0.029026	100.000000
600.000000	1.384836	-0.023693	100.000000
601.000000	1.390807	-0.019884	100.000000
602.000000	1.396727	-0.022994	100.000000
603.000000	1.402582	-0.022845	100.000000
604.000000	1.408355	-0.019447	100.000000
605.000000	1.414044	-0.012712	100.000000
606.000000	1.419668	-0.015790	100.000000
607.000000	1.425245	-0.027310	100.000000
608.000000	1.430771	-0.008577	100.000000
609.000000	1.436222	-0.029003	100.000000
610.000000	1.441571	-0.030817	100.000000
611.000000	1.446807	-0.020343	100.000000
612.000000	1.451934	-0.027161	100.000000
613.000000	1.456967	-0.030640	100.000000
614.000000	1.461903	-0.014715	100.000000
615.000000	1.466722	-0.025050	100.000000
616.000000	1.471404	-0.033496	100.000000
617.000000	1.475953	-0.042189	100.000000
618.000000	1.480403	-0.024856	100.000000
619.000000	1.484783	-0.010594	100.000000
620.000000	1.489095	-0.009080	100.000000
621.000000	1.493324	-0.024348	100.000000
622.000000	1.497462	-0.022534	100.000000
623.000000	1.501540	-0.031066	100.000000
624.000000	1.505607	-0.015614	100.000000
625.000000	1.509686	-0.039293	100.000000
626.000000	1.513771	-0.020430	100.000000
627.000000	1.517860	-0.032339	100.000000
628.000000	1.521936	-0.016788	100.000000
629.000000	1.525981	-0.025469	100.000000
630.000000	1.530024	-0.014736	100.000000
631.000000	1.534093	-0.009433	100.000000
632.000000	1.538177	-0.043296	100.000000
633.000000	1.542250	-0.033274	100.000000
634.000000	1.546286	-0.016299	100.000000
635.000000	1.550301	-0.028281	100.000000
636.000000	1.554326	-0.031011	100.000000
637.000000	1.558359	-0.007037	100.000000
638.000000	1.562379	-0.029410	100.000000
639.000000	1.566366	-0.027578	100.000000
640.000000	1.570328	-0.010538	100.000000
641.000000	1.574289	-0.034514	100.000000
642.000000	1.578256	-0.020382	100.000000
643.000000	1.582225	-0.040734	100.000000
644.000000	1.586181	-0.044050	100.000000
645.000000	1.590091	-0.040729	100.000000
646.000000	1.593969	-0.032171	100.000000
647.000000	1.597873	-0.011337	100.000000
648.000000	1.601828	-0.029788	100.000000
649.000000	1.605811	-0.027980	100.000000
650.000000	1.609791	-0.046857	100.000000
651.000000	1.613767	-0.052069	100.000000
652.000000	1.617768	-0.046705	100.000000
653.000000	1.621816	-0.036183	100.000000
654.000000	1.625918	-0.044158	100.000000
655.000000	1.630066	-0.056369	100.000000
656.000000	1.634239	-0.051135	100.000000
657.000000	1.638437	-0.049442	100.000000
658.000000	1.642693	-0.033736	100.000000
659.000000	1.647026	-0.049166	100.000000
660.000000	1.651423	-0.037108	100.000000
661.000000	1.655872	-0.071523	100.000000
662.000000	1.660375	-0.052152	100.000000
663.000000	1.664931	-0.031576	100.000000
664.000000	1.669532	-0.041663	100.000000
665.000000	1.674171	-0.068819	100.000000
666.000000	1.678843	-0.065355	100.000000
667.000000	1.683546	-0.063686	100.000000
668.000000	1.688288	-0.044933	100.000000
669.000000	1.693091	-0.071690	100.000000
670.000000	1.697964	-0.068137	100.000000
671.000000	1.702890	-0.057536	100.000000
672.000000	1.707856	-0.071108	100.000000
673.000000	1.712857	-0.064444	100.000000
674.000000	1.717902	-0.069291	100.000000
675.000000	1.723010	-0.065800	100.000000
676.000000	1.728176	-0.086122	100.000000
677.000000	1.733383	-0.092749	100.000000
678.000000	1.738641	-0.089583	100.000000
679.000000	1.743964	-0.082219	100.000000
680.000000	1.749360	-0.085496	100.000000
681.000000	1.754817	-0.078298	100.000000
682.000000	1.760337	-0.081689	100.000000
683.000000	1.765941	-0.086972	100.000000
684.000000	1.771626	-0.101964	100.000000
685.000000	1.777389	-0.101733	100.000000
686.000000	1.783245	-0.105038	100.000000
687.000000	1.789189	-0.118366	100.000000
688.000000	1.795186	-0.108106	100.000000
689.000000	1.801212	-0.104658	100.000000
690.000000	1.807273	-0.104588	100.000000
691.000000	1.813384	-0.090577	100.000000
692.000000	1.819557	-0.102278	100.000000
693.000000	1.825784	-0.127678	100.000000
694.000000	1.832056	-0.117596	100.000000
695.000000	1.838371	-0.107033	100.000000
696.000000	1.844736	-0.127785	100.000000
697.000000	1.851171	-0.106559	100.000000
698.000000	1.857670	-0.123679	100.000000
699.000000	1.864198	-0.128750	100.000000
700.000000	1.870729	-0.137121	100.000000
701.000000	1.877265	-0.104677	100.000000
702.000000	1.883825	-0.124735	100.000000
703.000000	1.890426	-0.124681	100.000000
704.000000	1.897070	-0.103660	100.000000
705.000000	1.903739	-0.144926	100.000000
706.000000	1.910406	-0.139521	100.000000
707.000000	1.917085	-0.115678	100.000000
708.000000	1.923800	-0.139384	100.000000
709.000000	1.930548	-0.139195	100.000000
710.000000	1.937302	-0.140833	100.000000
711.000000	1.944029	-0.149182	100.000000
712.000000	1.950734	-0.144036	100.000000
713.000000	1.957457	-0.133578	100.000000
714.000000	1.964228	-0.145184	100.000000
715.000000	1.971036	-0.158879	100.000000
716.000000	1.977859	-0.149837	100.000000
717.000000	1.984700	-0.157259	100.000000
718.000000	1.991578	-0.149757	100.000000
719.000000	1.998502	-0.154721	100.000000
720.000000	2.005467	-0.173532	100.000000
721.000000	2.012460	-0.152544	100.000000
722.000000	2.019461	-0.157740	100.000000
723.000000	2.026486	-0.169662	100.000000
724.000000	2.033565	-0.147155	100.000000
725.000000	2.040722	-0.169292	100.000000
726.000000	2.047951	-0.158579	100.000000
727.000000	2.055235	-0.162048	100.000000
728.000000	2.062564	-0.144832	100.000000
729.000000	2.069930	-0.165449	100.000000
730.000000	2.077327	-0.170055	100.000000
731.000000	2.084775	-0.161234	100.000000
732.000000	2.092287	-0.166166	100.000000
733.000000	2.099854	-0.190377	100.000000
734.000000	2.107473	-0.185448	100.000000
735.000000	2.115164	-0.176582	100.000000
736.000000	2.122945	-0.176144	100.000000
737.000000	2.130798	-0.198141	100.000000
738.000000	2.138698	-0.196539	100.000000
739.000000	2.146641	-0.194761	100.000000
740.000000	2.154625	-0.206797	100.000000
741.000000	2.162661	-0.191052	100.000000
742.000000	2.170768	-0.183750	100.000000
743.000000	2.178942	-0.197197	100.000000
744.000000	2.187153	-0.203851	100.000000
745.000000	2.195369	-0.198898	100.000000
746.000000	2.203600	-0.195651	100.000000
747.000000	2.211880	-0.182981	100.000000
748.000000	2.220204	-0.194902	100.000000
749.000000	2.228551	-0.204925	100.000000
750.000000	2.236913	-0.192943	100.000000
751.000000	2.245311	-0.191128	100.000000
752.000000	2.253777	-0.208110	100.000000
753.000000	2.262328	-0.187105	100.000000
754.000000	2.270963	-0.181668	100.000000
755.000000	2.279663	-0.189948	100.000000
756.000000	2.288397	-0.198487	100.000000
757.000000	2.297152	-0.203261	100.000000
758.000000	2.305946	-0.194929	100.000000
759.000000	2.314796	-0.191194	100.000000
760.000000	2.323692	-0.207836	100.000000
761.000000	2.332616	-0.207868	100.000000
762.000000	2.341571	-0.208032	100.000000
763.000000	2.350562	-0.195715	100.000000
764.000000	2.359600	-0.210771	100.000000
765.000000	2.368699	-0.188226	100.000000
766.000000	2.377830	-0.199950	100.000000
767.000000	2.386962	-0.217184	100.000000
768.000000	2.396096	-0.193131	100.000000
769.000000	2.405257	-0.199668	100.000000
770.000000	2.414460	-0.187438	100.000000
771.000000	2.423692	-0.195776	100.000000
772.000000	2.432930	-0.200792	100.000000
773.000000	2.442154	-0.200757	100.000000
774.000000	2.451371	-0.188619	100.000000
775.000000	2.460627	-0.176382	100.000000
776.000000	2.469942	-0.188147	100.000000
777.000000	2.479291	-0.191091	100.000000
778.000000	2.488630	-0.184191	100.000000
779.000000	2.497958	-0.182680	100.000000
780.000000	2.507308	-0.183993	100.000000
781.000000	2.516679	-0.187442	100.000000
782.000000	2.526069	-0.175146	100.000000
783.000000	2.535466	-0.181663	100.000000
784.000000	2.544822	-0.190120	100.000000
785.000000	2.554121	-0.183383	100.000000
786.000000	2.563389	-0.174227	100.000000
787.000000	2.572648	-0.181029	100.000000
788.000000	2.581902	-0.196131	100.000000
789.000000	2.591129	-0.182287	100.000000
790.000000	2.600318	-0.189280	100.000000
791.000000	2.609494	-0.168455	100.000000
792.000000	2.618694	-0.161540	100.000000
793.000000	2.627926	-0.176257	100.000000
794.000000	2.637180	-0.164166	100.000000
795.000000	2.646438	-0.155579	100.000000
796.000000	2.655700	-0.182732	100.000000
797.000000	2.664978	-0.167344	100.000000
798.000000	2.674287	-0.170467	100.000000
799.000000	2.683627	-0.161570	100.000000
800.000000	2.692983	-0.182063	100.000000
801.000000	2.702356	-0.168261	100.000000
802.000000	2.711780	-0.178767	100.000000
803.000000	2.721267	-0.181502	100.000000
804.000000	2.730800	-0.193208	100.000000
805.000000	2.740366	-0.179374	100.000000
806.000000	2.749947	-0.172388	100.000000
807.000000	2.759543	-0.165535	100.000000
808.000000	2.769180	-0.166759	100.000000
809.000000	2.778876	-0.168209	100.000000
810.000000	2.788627	-0.165968	100.000000
811.000000	2.798404	-0.165908	100.000000
812.000000	2.808204	-0.172821	100.000000
813.000000	2.818070	-0.150246	100.000000
814.000000	2.828031	-0.143133	100.000000
815.000000	2.838085	-0.149752	100.000000
816.000000	2.848217	-0.163269	100.000000
817.000000	2.858417	-0.144228	100.000000
818.000000	2.868688	-0.169583	100.000000
819.000000	2.879038	-0.147357	100.000000
820.000000	2.889484	-0.145119	100.000000
821.000000	2.900032	-0.149802	100.000000
822.000000	2.910649	-0.148105	100.000000
823.000000	2.921311	-0.147809	100.000000
824.000000	2.932032	-0.142672	100.000000
825.000000	2.942844	-0.120020	100.000000
826.000000	2.953767	-0.123182	100.000000
827.000000	2.964780	-0.127974	100.000000
828.000000	2.975844	-0.132935	100.000000
829.000000	2.986932	-0.137908	100.000000
830.000000	2.998050	-0.129294	100.000000
831.000000	3.009224	-0.108384	100.000000
832.000000	3.020461	-0.123516	100.000000
833.000000	3.031732	-0.131567	100.000000
834.000000	3.043009	-0.128055	100.000000
835.000000	3.054291	-0.129426	100.000000
836.000000	3.065604	-0.112241	100.000000
837.000000	3.076988	-0.098189	100.000000
838.000000	3.088455	-0.104664	100.000000
839.000000	3.099981	-0.109899	100.000000
840.000000	3.111528	-0.114783	100.000000
841.000000	3.123091	-0.104506	100.000000
842.000000	3.134707	-0.102218	100.000000
843.000000	3.146386	-0.105361	100.000000
844.000000	3.158082	-0.109932	100.000000
845.000000	3.169760	-0.118531	100.000000
846.000000	3.181422	-0.120260	100.000000
847.000000	3.193092	-0.100822	100.000000
848.000000	3.204787	-0.098787	100.000000
849.000000	3.216491	-0.108710	100.000000
850.000000	3.228174	-0.100030	100.000000
851.000000	3.239821	-0.101635	100.000000
852.000000	3.251444	-0.108084	100.000000
853.000000	3.263067	-0.097759	100.000000
854.000000	3.274693	-0.082010	100.000000
855.000000	3.286323	-0.103787	100.000000
856.000000	3.297987	-0.105295	100.000000
857.000000	3.309700	-0.108687	100.000000
858.000000	3.321450	-0.096202	100.000000
859.000000	3.333239	-0.085584	100.000000
860.000000	3.345070	-0.095381	100.000000
861.000000	3.356913	-0.103666	100.000000
862.000000	3.368752	-0.079543	100.000000
863.000000	3.380589	-0.070901	100.000000
864.000000	3.392440	-0.089186	100.000000
865.000000	3.404326	-0.076948	100.000000
866.000000	3.416238	-0.083643	100.000000
867.000000	3.428152	-0.086822	100.000000
868.000000	3.440047	-0.067735	100.000000
869.000000	3.451908	-0.082924	100.000000
870.000000	3.463738	-0.062150	100.000000
871.000000	3.475560	-0.071931	100.000000
872.000000	3.487371	-0.075133	100.000000
873.000000	3.499131	-0.075120	100.000000
874.000000	3.510841	-0.095079	100.000000
875.000000	3.522544	-0.066019	100.000000
876.000000	3.534275	-0.062292	100.000000
877.000000	3.546044	-0.068444	100.000000
878.000000	3.557857	-0.076930	100.000000
879.000000	3.569706	-0.061389	100.000000
880.000000	3.581576	-0.045654	100.000000
881.000000	3.593481	-0.060392	100.000000
882.000000	3.605462	-0.054960	100.000000
883.000000	3.617515	-0.059993	100.000000
884.000000	3.629592	-0.055883	100.000000
885.000000	3.641677	-0.049122	100.000000
886.000000	3.653801	-0.041779	100.000000
887.000000	3.665986	-0.041325	100.000000
888.000000	3.678226	-0.049885	100.000000
889.000000	3.690506	-0.040845	100.000000
890.000000	3.702813	-0.044235	100.000000
891.000000	3.715145	-0.029946	100.000000
892.000000	3.727508	-0.024445	100.000000
893.000000	3.739906	-0.017595	100.000000
894.000000	3.752330	-0.022131	100.000000
895.000000	3.764769	-0.008484	100.000000
896.000000	3.777236	-0.023693	100.000000
897.000000	3.789729	-0.028201	100.000000
898.000000	3.802228	-0.000759	100.000000
899.000000	3.814721	-0.008851	100.000000
900.000000	3.827198	-0.011898	100.000000
901.000000	3.839647	-0.017246	100.000000
902.000000	3.852062	-0.006597	100.000000
903.000000	3.864440	-0.004370	100.000000
904.000000	3.876783	-0.005750	100.000000
905.000000	3.889081	-0.012426	100.000000
906.000000	3.901312	0.001510	100.000000
907.000000	3.913460	0.015179	100.000000
908.000000	3.925537	0.007114	100.000000
909.000000	3.937558	0.005755	100.000000
910.000000	3.949516	0.007716	100.000000
911.000000	3.961405	0.002746	100.000000
912.000000	3.973207	0.025247	100.000000
913.000000	3.984919	0.016959	100.000000
914.000000	3.996593	0.031070	100.000000
915.000000	4.008263	0.026190	100.000000
916.000000	4.019898	0.014428	100.000000
917.000000	4.031462	0.023147	100.000000
918.000000	4.042945	0.016713	100.000000
919.000000	4.054350	0.039473	100.000000
920.000000	4.065685	0.029449	100.000000
921.000000	4.076942	0.022698	100.000000
922.000000	4.088102	0.024591	100.000000
923.000000	4.099160	0.018103	100.000000
924.000000	4.110115	0.031762	100.000000
925.000000	4.120994	0.030372	100.000000
926.000000	4.131821	0.051167	100.000000
927.000000	4.142587	0.039521	100.000000
928.000000	4.153274	0.051921	100.000000
929.000000	4.163881	0.032851	100.000000
930.000000	4.174432	0.019466	100.000000
931.000000	4.184953	0.038712	100.000000
932.000000	4.195439	0.035461	100.000000
933.000000	4.205873	0.047730	100.000000
934.000000	4.216240	0.047656	100.000000
935.000000	4.226542	0.053576	100.000000
936.000000	4.236784	0.065602	100.000000
937.000000	4.246975	0.045547	100.000000
938.000000	4.257109	0.042147	100.000000
939.000000	4.267188	0.054466	100.000000
940.000000	4.277238	0.051254	100.000000
941.000000	4.287276	0.042700	100.000000
942.000000	4.297321	0.057033	100.000000
943.000000	4.307390	0.045142	100.000000
944.000000	4.317464	0.045801	100.000000
945.000000	4.327509	0.057604	100.000000
946.000000	4.337513	0.062825	100.000000
947.000000	4.347495	0.063301	100.000000
948.000000	4.357481	0.072328	100.000000
949.000000	4.367476	0.076016	100.000000
950.000000	4.377461	0.079963	100.000000
951.000000	4.387421	0.074659	100.000000
952.000000	4.397349	0.069495	100.000000
953.000000	4.407259	0.085292	100.000000
954.000000	4.417166	0.066728	100.000000
955.000000	4.427070	0.060530	100.000000
956.000000	4.436962	0.070871	100.000000
957.000000	4.446841	0.063977	100.000000
958.000000	4.456704	0.074513	100.000000
959.000000	4.466549	0.059200	100.000000
960.000000	4.476393	0.052810	100.000000
961.000000	4.486250	0.073167	100.000000
962.000000	4.496121	0.075212	100.000000
963.000000	4.506020	0.061852	100.000000
964.000000	4.515954	0.080942	100.000000
965.000000	4.525917	0.082924	100.000000
966.000000	4.535893	0.079757	100.000000
967.000000	4.545861	0.055801	100.000000
968.000000	4.555800	0.083031	100.000000
969.000000	4.565700	0.087153	100.000000
970.000000	4.575564	0.081944	100.000000
971.000000	4.585392	0.082042	100.000000
972.000000	4.595163	0.068785	100.000000
973.000000	4.604845	0.070792	100.000000
974.000000	4.614409	0.081323	100.000000
975.000000	4.623865	0.095026	100.000000
976.000000	4.633277	0.088549	100.000000
977.000000	4.642699	0.080407	100.000000
978.000000	4.652131	0.077370	100.000000
979.000000	4.661541	0.063615	100.000000
980.000000	4.670910	0.077768	100.000000
981.000000	4.680251	0.074386	100.000000
982.000000	4.689584	0.079588	100.000000
983.000000	4.698916	0.083363	100.000000
984.000000	4.708247	0.073509	100.000000
985.000000	4.717580	0.085676	100.000000
986.000000	4.726929	0.060123	100.000000
987.000000	4.736304	0.079301	100.000000
988.000000	4.745702	0.101600	100.000000
989.000000	4.755126	0.081501	100.000000
990.000000	4.764553	0.086777	100.000000
991.000000	4.773958	0.085049	100.000000
992.000000	4.783339	0.095597	100.000000
993.000000	4.792691	0.082063	100.000000
994.000000	4.801989	0.080709	100.000000
995.000000	4.811207	0.087733	100.000000
996.000000	4.820340	0.074150	100.000000
997.000000	4.829402	0.074138	100.000000
998.000000	4.838446	0.083125	100.000000
999.000000	4.847528	0.107393	100.000000
1000.000000	4.856657	0.081912	100.000000
1001.000000	4.865811	0.080187	100.000000
1002.000000	4.874967	0.095619	100.000000
1003.000000	4.884116	0.075518	100.000000
1004.000000	4.893269	0.106494	100.000000
1005.000000	4.902432	0.074022	100.000000
1006.000000	4.911593	0.086528	100.000000
1007.000000	4.920733	0.096945	100.000000
1008.000000	4.929838	0.102273	100.000000
1009.000000	4.938914	0.093747	100.000000
1010.000000	4.947986	0.097561	100.000000
1011.000000	4.957077	0.104661	100.000000
1012.000000	4.966193	0.092920	100.000000
1013.000000	4.975326	0.110022	100.000000
1014.000000	4.984479	0.105046	100.000000
1015.000000	4.993662	0.096812	100.000000
1016.000000	5.002882	0.105891	100.000000
1017.000000	5.012128	0.092366	100.000000
1018.000000	5.021373	0.090727	100.000000
1019.000000	5.030601	0.118275	100.000000
1020.000000	5.039822	0.113350	100.000000
1021.000000	5.049071	0.127319	100.000000
1022.000000	5.058374	0.112187	100.000000
1023.000000	5.067727	0.100843	100.000000
1024.000000	5.077107	0.102356	100.000000
1025.000000	5.086500	0.118152	100.000000
1026.000000	5.095917	0.114641	100.000000
1027.000000	5.105389	0.116775	100.000000
1028.000000	5.114930	0.113709	100.000000
1029.000000	5.124527	0.121071	100.000000
1030.000000	5.134171	0.095476	100.000000
1031.000000	5.143867	0.105747	100.000000
1032.000000	5.153627	0.114790	100.000000
1033.000000	5.163462	0.120188	100.000000
1034.000000	5.173378	0.106469	100.000000
1035.000000	5.183359	0.098462	100.000000
1036.000000	5.193371	0.100109	100.000000
1037.000000	5.203401	0.114139	100.000000
1038.000000	5.213466	0.114436	100.000000
1039.000000	5.223564	0.113061	100.000000
1040.000000	5.233674	0.122032	100.000000
1041.000000	5.243782	0.110225	100.000000
1042.000000	5.253872	0.117096	100.000000
1043.000000	5.263940	0.122227	100.000000
1044.000000	5.273993	0.112444	100.000000
1045.000000	5.284040	0.134704	100.000000
1046.000000	5.294077	0.130144	100.000000
1047.000000	5.304076	0.101297	100.000000
1048.000000	5.314014	0.123682	100.000000
1049.000000	5.323896	0.111947	100.000000
1050.000000	5.333741	0.122189	100.000000
1051.000000	5.343572	0.129628	100.000000
1052.000000	5.353420	0.129810	100.000000
1053.000000	5.363289	0.112988	100.000000
1054.000000	5.373150	0.113121	100.000000
1055.000000	5.382979	0.112906	100.000000
1056.000000	5.392792	0.132154	100.000000
1057.000000	5.402620	0.139473	100.000000
1058.000000	5.412473	0.143209	100.000000
1059.000000	5.422330	0.112344	100.000000
1060.000000	5.432162	0.126521	100.000000
1061.000000	5.441955	0.145513	100.000000
1062.000000	5.451723	0.135319	100.000000
1063.000000	5.461484	0.145799	100.000000
1064.000000	5.471235	0.139368	100.000000
1065.000000	5.480958	0.130881	100.000000
1066.000000	5.490638	0.132835	100.000000
1067.000000	5.500280	0.151586	100.000000
1068.000000	5.509900	0.157203	100.000000
1069.000000	5.519505	0.155731	100.000000
1070.000000	5.529075	0.145890	100.000000
1071.000000	5.538585	0.135592	100.000000
1072.000000	5.548026	0.137306	100.000000
1073.000000	5.557421	0.134267	100.000000
1074.000000	5.566798	0.170244	100.000000
1075.000000	5.576149	0.146834	100.000000
1076.000000	5.585448	0.162462	100.000000
1077.000000	5.594694	0.141702	100.000000
1078.000000	5.603897	0.152311	100.000000
1079.000000	5.613072	0.131907	100.000000
1080.000000	5.622242	0.159612	100.000000
1081.000000	5.631418	0.142842	100.000000
1082.000000	5.640575	0.148022	100.000000
1083.000000	5.649669	0.129441	100.000000
1084.000000	5.658685	0.136170	100.000000
1085.000000	5.667644	0.143446	100.000000
1086.000000	5.676558	0.152502	100.000000
1087.000000	5.685430	0.140651	100.000000
1088.000000	5.694265	0.156299	100.000000
1089.000000	5.703055	0.151122	100.000000
1090.000000	5.711786	0.125579	100.000000
1091.000000	5.720479	0.155014	100.000000
1092.000000	5.729156	0.141582	100.000000
1093.000000	5.737822	0.143551	100.000000
1094.000000	5.746480	0.143706	100.000000
1095.000000	5.755123	0.149050	100.000000
1096.000000	5.763751	0.168017	100.000000
1097.000000	5.772369	0.149430	100.000000
1098.000000	5.780983	0.168778	100.000000
1099.000000	5.789606	0.162091	100.000000
1100.000000	5.798251	0.170961	100.000000
1101.000000	5.806906	0.157137	100.000000
1102.000000	5.815588	0.164597	100.000000
1103.000000	5.824331	0.161253	100.000000
1104.000000	5.833138	0.161596	100.000000
1105.000000	5.841988	0.170129	100.000000
1106.000000	5.850850	0.166976	100.000000
1107.000000	5.859714	0.160187	100.000000
1108.000000	5.868600	0.170641	100.000000
1109.000000	5.877521	0.170964	100.000000
1110.000000	5.886488	0.166341	100.000000
1111.000000	5.895484	0.173285	100.000000
1112.000000	5.904476	0.170143	100.000000
1113.000000	5.913465	0.161351	100.000000
1114.000000	5.922472	0.163534	100.000000
1115.000000	5.931492	0.182699	100.000000
1116.000000	5.940520	0.177890	100.000000
1117.000000	5.949552	0.167638	100.000000
1118.000000	5.958550	0.162714	100.000000
1119.000000	5.967493	0.173154	100.000000
1120.000000	5.976408	0.181590	100.000000
1121.000000	5.985322	0.166741	100.000000
1122.000000	5.994226	0.159978	100.000000
1123.000000	6.003102	0.141347	100.000000
1124.000000	6.011926	0.151923	100.000000
1125.000000	6.020686	0.167185	100.000000
1126.000000	6.029404	0.162577	100.000000
1127.000000	6.038103	0.171467	100.000000
1128.000000	6.046783	0.166354	100.000000
1129.000000	6.055432	0.154701	100.000000
1130.000000	6.064026	0.166525	100.000000
1131.000000	6.072570	0.153215	100.000000
1132.000000	6.081082	0.163555	100.000000
1133.000000	6.089564	0.160678	100.000000
1134.000000	6.098004	0.153969	100.000000
1135.000000	6.106397	0.157371	100.000000
1136.000000	6.114737	0.154304	100.000000
1137.000000	6.123031	0.178289	100.000000
1138.000000	6.131291	0.164888	100.000000
1139.000000	6.139528	0.165329	100.000000
1140.000000	6.147737	0.153400	100.000000
1141.000000	6.155906	0.155364	100.000000
1142.000000	6.164047	0.179278	100.000000
1143.000000	6.172187	0.174630	100.000000
1144.000000	6.180327	0.154465	100.000000
1145.000000	6.188459	0.161337	100.000000
1146.000000	6.196593	0.151163	100.000000
1147.000000	6.204737	0.162980	100.000000
1148.000000	6.212900	0.173835	100.000000
1149.000000	6.221096	0.164131	100.000000
1150.000000	6.229331	0.167765	100.000000
1151.000000	6.237588	0.160991	100.000000
1152.000000	6.245872	0.154227	100.000000
1153.000000	6.254208	0.158005	100.000000
1154.000000	6.262605	0.154825	100.000000
1155.000000	6.271068	0.179007	100.000000
1156.000000	6.279592	0.165568	100.000000
1157.000000	6.288160	0.179462	100.000000
1158.000000	6.296754	0.174570	100.000000
1159.000000	6.305374	0.176440	100.000000
1160.000000	6.314048	0.173202	100.000000
1161.000000	6.322786	0.180807	100.000000
1162.000000	6.331552	0.177238	100.000000
1163.000000	6.340317	0.163499	100.000000
1164.000000	6.349078	0.165312	100.000000
1165.000000	6.357848	0.186388	100.000000
1166.000000	6.366641	0.186568	100.000000
1167.000000	6.375450	0.181661	100.000000
1168.000000	6.384256	0.171720	100.000000
1169.000000	6.393059	0.186798	100.000000
1170.000000	6.401872	0.175212	100.000000
1171.000000	6.410692	0.178957	100.000000
1172.000000	6.419518	0.192845	100.000000
1173.000000	6.428351	0.177770	100.000000
1174.000000	6.437177	0.174641	100.000000
1175.000000	6.445984	0.184942	100.000000
1176.000000	6.454761	0.207262	100.000000
1177.000000	6.463516	0.190360	100.000000
1178.000000	6.472277	0.197544	100.000000
1179.000000	6.481028	0.173672	100.000000
1180.000000	6.489750	0.180721	100.000000
1181.000000	6.498460	0.182468	100.000000
1182.000000	6.507174	0.198112	100.000000
1183.000000	6.515898	0.191614	100.000000
1184.000000	6.524614	0.198595	100.000000
1185.000000	6.533291	0.197111	100.000000
1186.000000	6.541912	0.190117	100.000000
1187.000000	6.550491	0.185339	100.000000
1188.000000	6.559052	0.207859	100.000000
1189.000000	6.567578	0.180570	100.000000
1190.000000	6.576035	0.172270	100.000000
1191.000000	6.584402	0.182654	100.000000
1192.000000	6.592665	0.194981	100.000000
1193.000000	6.600838	0.208105	100.000000
1194.000000	6.608957	0.186440	100.000000
1195.000000	6.617042	0.186774	100.000000
1196.000000	6.625096	0.204268	100.000000
1197.000000	6.633100	0.157982	100.000000
1198.000000	6.641032	0.181930	100.000000
1199.000000	6.648910	0.192354	100.000000
1200.000000	6.656764	0.194158	100.000000
1201.000000	6.664594	0.184402	100.000000
1202.000000	6.672370	0.175761	100.000000
1203.000000	6.680081	0.175766	100.000000
1204.000000	6.687750	0.191665	100.000000
1205.000000	6.695399	0.186598	100.000000
1206.000000	6.703026	0.186795	100.000000
1207.000000	6.710634	0.183696	100.000000
1208.000000	6.718218	0.169829	100.000000
1209.000000	6.725764	0.194208	100.000000
1210.000000	6.733285	0.183697	100.000000
1211.000000	6.740814	0.180562	100.000000
1212.000000	6.748363	0.196168	100.000000
1213.000000	6.755911	0.196492	100.000000
1214.000000	6.763437	0.194728	100.000000
1215.000000	6.770934	0.199520	100.000000
1216.000000	6.778406	0.193291	100.000000
1217.000000	6.785865	0.184842	100.000000
1218.000000	6.793320	0.195330	100.000000
1219.000000	6.800748	0.214725	100.000000
1220.000000	6.808135	0.185152	100.000000
1221.000000	6.815484	0.195771	100.000000
1222.000000	6.822798	0.202375	100.000000
1223.000000	6.830096	0.201226	100.000000
1224.000000	6.837401	0.213273	100.000000
1225.000000	6.844709	0.191179	100.000000
1226.000000	6.851997	0.203098	100.000000
1227.000000	6.859255	0.204914	100.000000
1228.000000	6.866511	0.217242	100.000000
1229.000000	6.873808	0.224053	100.000000
1230.000000	6.881128	0.198807	100.000000
1231.000000	6.888424	0.193755	100.000000
1232.000000	6.895681	0.219421	100.000000
1233.000000	6.902908	0.209360	100.000000
1234.000000	6.910128	0.218109	100.000000
1235.000000	6.917349	0.206301	100.000000
1236.000000	6.924531	0.204716	100.000000
1237.000000	6.931659	0.196111	100.000000
1238.000000	6.938766	0.218680	100.000000
1239.000000	6.945869	0.204973	100.000000
1240.000000	6.952981	0.218911	100.000000
1241.000000	6.960097	0.210350	100.000000
1242.000000	6.967188	0.201530	100.000000
1243.000000	6.974258	0.195053	100.000000
1244.000000	6.981319	0.212716	100.000000
1245.000000	6.988377	0.214307	100.000000
1246.000000	6.995438	0.218135	100.000000
1247.000000	7.002477	0.206157	100.000000
1248.000000	7.009474	0.204540	100.000000
1249.000000	7.016434	0.206271	100.000000
1250.000000	7.023407	0.227124	100.000000
1251.000000	7.030433	0.205204	100.000000
1252.000000	7.037501	0.224146	100.000000
1253.000000	7.044585	0.220865	100.000000
1254.000000	7.051676	0.206948	100.000000
1255.000000	7.058806	0.222483	100.000000
1256.000000	7.066027	0.228019	100.000000
1257.000000	7.073331	0.216152	100.000000
1258.000000	7.080673	0.216301	100.000000
1259.000000	7.088036	0.226507	100.000000
1260.000000	7.095445	0.209664	100.000000
1261.000000	7.102914	0.225536	100.000000
1262.000000	7.110432	0.205020	100.000000
1263.000000	7.117978	0.196488	100.000000
1264.000000	7.125533	0.201541	100.000000
1265.000000	7.133107	0.208758	100.000000
1266.000000	7.140727	0.222681	100.000000
1267.000000	7.148390	0.199079	100.000000
1268.000000	7.156078	0.193969	100.000000
1269.000000	7.163780	0.207843	100.000000
1270.000000	7.171494	0.212980	100.000000
1271.000000	7.179232	0.209782	100.000000
1272.000000	7.187023	0.201586	100.000000
1273.000000	7.194886	0.218933	100.000000
1274.000000	7.202818	0.201868	100.000000
1275.000000	7.210780	0.203802	100.000000
1276.000000	7.218745	0.200254	100.000000
1277.000000	7.226741	0.207552	100.000000
1278.000000	7.234795	0.206206	100.000000
1279.000000	7.242880	0.209811	100.000000
1280.000000	7.250961	0.192628	100.000000
1281.000000	7.259043	0.209537	100.000000
1282.000000	7.267161	0.213344	100.000000
1283.000000	7.275336	0.198492	100.000000
1284.000000	7.283540	0.195090	100.000000
1285.000000	7.291733	0.197028	100.000000
1286.000000	7.299893	0.185109	100.000000
1287.000000	7.308024	0.197070	100.000000
1288.000000	7.316154	0.216163	100.000000
1289.000000	7.324297	0.189011	100.000000
1290.000000	7.332436	0.197603	100.000000
1291.000000	7.340548	0.194563	100.000000
1292.000000	7.348630	0.177494	100.000000
1293.000000	7.356686	0.199877	100.000000
1294.000000	7.364735	0.202076	100.000000
1295.000000	7.372781	0.186762	100.000000
1296.000000	7.380794	0.181903	100.000000
1297.000000	7.388775	0.188678	100.000000
1298.000000	7.396742	0.175058	100.000000
1299.000000	7.404715	0.202673	100.000000
1300.000000	7.412711	0.206553	100.000000
1301.000000	7.420706	0.191362	100.000000
1302.000000	7.428687	0.194944	100.000000
1303.000000	7.436666	0.193233	100.000000
1304.000000	7.444643	0.198667	100.000000
1305.000000	7.452621	0.195146	100.000000
1306.000000	7.460604	0.191997	100.000000
1307.000000	7.468584	0.194014	100.000000
1308.000000	7.476530	0.199234	100.000000
1309.000000	7.484433	0.177083	100.000000
1310.000000	7.492310	0.189167	100.000000
1311.000000	7.500189	0.199809	100.000000
1312.000000	7.508085	0.201868	100.000000
1313.000000	7.516004	0.203626	100.000000
1314.000000	7.523936	0.189942	100.000000
1315.000000	7.531842	0.196976	100.000000
1316.000000	7.539717	0.207244	100.000000
1317.000000	7.547576	0.212694	100.000000
1318.000000	7.555403	0.188877	100.000000
1319.000000	7.563184	0.204483	100.000000
1320.000000	7.570908	0.202891	100.000000
1321.000000	7.578571	0.196113	100.000000
1322.000000	7.586196	0.213371	100.000000
1323.000000	7.593805	0.200003	100.000000
1324.000000	7.601400	0.196630	100.000000
1325.000000	7.608968	0.195160	100.000000
1326.000000	7.616491	0.199023	100.000000
1327.000000	7.623966	0.207347	100.000000
1328.000000	7.631414	0.200667	100.000000
1329.000000	7.638846	0.216474	100.000000
1330.000000	7.646245	0.201154	100.000000
1331.000000	7.653589	0.196176	100.000000
1332.000000	7.660866	0.194425	100.000000
1333.000000	7.668084	0.222105	100.000000
1334.000000	7.675261	0.205174	100.000000
1335.000000	7.682404	0.220907	100.000000
1336.000000	7.689521	0.202023	100.000000
1337.000000	7.696590	0.186936	100.000000
1338.000000	7.703581	0.200482	100.000000
1339.000000	7.710502	0.212769	100.000000
1340.000000	7.717380	0.211413	100.000000
1341.000000	7.724215	0.189009	100.000000
1342.000000	7.730991	0.205043	100.000000
1343.000000	7.737701	0.194736	100.000000
1344.000000	7.744359	0.216918	100.000000
1345.000000	7.750985	0.212272	100.000000
1346.000000	7.757578	0.207176	100.000000
1347.000000	7.764118	0.188408	100.000000
1348.000000	7.770593	0.192031	100.000000
1349.000000	7.777000	0.197165	100.000000
1350.000000	7.783381	0.195587	100.000000
1351.000000	7.789786	0.218259	100.000000
1352.000000	7.796204	0.208183	100.000000
1353.000000	7.802602	0.205029	100.000000
1354.000000	7.808965	0.201487	100.000000
1355.000000	7.815305	0.215490	100.000000
1356.000000	7.821641	0.215797	100.000000
1357.000000	7.827963	0.212614	100.000000
1358.000000	7.834253	0.198889	100.000000
1359.000000	7.840515	0.219419	100.000000
1360.000000	7.846763	0.195435	100.000000
1361.000000	7.853001	0.233547	100.000000
1362.000000	7.859227	0.207949	100.000000
1363.000000	7.865444	0.223749	100.000000
1364.000000	7.871648	0.205304	100.000000
1365.000000	7.877822	0.206850	100.000000
1366.000000	7.883961	0.237829	100.000000
1367.000000	7.890086	0.212350	100.000000
1368.000000	7.896220	0.229748	100.000000
1369.000000	7.902346	0.199248	100.000000
1370.000000	7.908434	0.212828	100.000000
1371.000000	7.914485	0.202871	100.000000
1372.000000	7.920539	0.237118	100.000000
1373.000000	7.926627	0.220225	100.000000
1374.000000	7.932733	0.210151	100.000000
1375.000000	7.938824	0.223955	100.000000
1376.000000	7.944883	0.219008	100.000000
1377.000000	7.950906	0.207095	100.000000
1378.000000	7.956916	0.213883	100.000000
1379.000000	7.962929	0.214234	100.000000
1380.000000	7.968940	0.218059	100.000000
1381.000000	7.974929	0.214619	100.000000
1382.000000	7.980876	0.216456	100.000000
1383.000000	7.986786	0.218356	100.000000
1384.000000	7.992683	0.228820	100.000000
1385.000000	7.998581	0.222217	100.000000
1386.000000	8.004481	0.198251	100.000000
1387.000000	8.010363	0.212114	100.000000
1388.000000	8.016216	0.206913	100.000000
1389.000000	8.022061	0.224323	100.000000
1390.000000	8.027911	0.228235	100.000000
1391.000000	8.033751	0.223117	100.000000
1392.000000	8.039565	0.241677	100.000000
1393.000000	8.045350	0.221546	100.000000
1394.000000	8.051121	0.214951	100.000000
1395.000000	8.056895	0.228653	100.000000
1396.000000	8.062682	0.228932	100.000000
1397.000000	8.068483	0.230785	100.000000
1398.000000	8.074276	0.222408	100.000000
1399.000000	8.080037	0.213928	100.000000
1400.000000	8.085759	0.210512	100.000000
1401.000000	8.091464	0.217755	100.000000
1402.000000	8.097187	0.238304	100.000000
1403.000000	8.102934	0.228425	100.000000
1404.000000	8.108673	0.194154	100.000000
1405.000000	8.114391	0.223441	100.000000
1406.000000	8.120097	0.204819	100.000000
1407.000000	8.125819	0.225317	100.000000
1408.000000	8.131565	0.200075	100.000000
1409.000000	8.137306	0.205490	100.000000
1410.000000	8.143030	0.207009	100.000000
1411.000000	8.148753	0.212470	100.000000
1412.000000	8.154486	0.219584	100.000000
1413.000000	8.160225	0.209411	100.000000
1414.000000	8.165971	0.214888	100.000000
1415.000000	8.171721	0.230187	100.000000
1416.000000	8.177489	0.218379	100.000000
1417.000000	8.183297	0.218682	100.000000
1418.000000	8.189143	0.223995	100.000000
1419.000000	8.195017	0.222499	100.000000
1420.000000	8.200902	0.212410	100.000000
1421.000000	8.206783	0.212592	100.000000
1422.000000	8.212687	0.227905	100.000000
1423.000000	8.218648	0.221496	100.000000
1424.000000	8.224652	0.231801	100.000000
1425.000000	8.230670	0.211626	100.000000
1426.000000	8.236695	0.235473	100.000000
1427.000000	8.242734	0.216827	100.000000
1428.000000	8.248810	0.211854	100.000000
1429.000000	8.254948	0.220675	100.000000
1430.000000	8.261141	0.224344	100.000000
1431.000000	8.267365	0.227969	100.000000
1432.000000	8.273614	0.214096	100.000000
1433.000000	8.279886	0.226675	100.000000
1434.000000	8.286196	0.243668	100.000000
1435.000000	8.292562	0.208150	100.000000
1436.000000	8.298985	0.232239	100.000000
1437.000000	8.305445	0.218659	100.000000
1438.000000	8.311900	0.220732	100.000000
1439.000000	8.318342	0.212030	100.000000
1440.000000	8.324798	0.224295	100.000000
1441.000000	8.331287	0.231472	100.000000
1442.000000	8.337794	0.240662	100.000000
1443.000000	8.344308	0.221526	100.000000
1444.000000	8.350822	0.205942	100.000000
1445.000000	8.357325	0.225222	100.000000
1446.000000	8.363828	0.230087	100.000000
1447.000000	8.370351	0.227132	100.000000
1448.000000	8.376905	0.225632	100.000000
1449.000000	8.383470	0.217281	100.000000
1450.000000	8.390023	0.229379	100.000000
1451.000000	8.396570	0.219272	100.000000
1452.000000	8.403126	0.231463	100.000000
1453.000000	8.409693	0.235060	100.000000
1454.000000	8.416265	0.230133	100.000000
1455.000000	8.422831	0.235220	100.000000
1456.000000	8.429402	0.226197	100.000000
1457.000000	8.436018	0.231987	100.000000
1458.000000	8.442683	0.235968	100.000000
1459.000000	8.449367	0.246451	100.000000
1460.000000	8.456048	0.236135	100.000000
1461.000000	8.462722	0.236066	100.000000
1462.000000	8.469408	0.249966	100.000000
1463.000000	8.476129	0.238183	100.000000
1464.000000	8.482886	0.245132	100.000000
1465.000000	8.489660	0.259061	100.000000
1466.000000	8.496419	0.252105	100.000000
1467.000000	8.503144	0.247174	100.000000
1468.000000	8.509844	0.242067	100.000000
1469.000000	8.516530	0.232062	100.000000
1470.000000	8.523211	0.242603	100.000000
1471.000000	8.529875	0.234133	100.000000
1472.000000	8.536495	0.247876	100.000000
1473.000000	8.543060	0.247870	100.000000
1474.000000	8.549590	0.239571	100.000000
1475.000000	8.556106	0.257000	100.000000
1476.000000	8.562602	0.251985	100.000000
1477.000000	8.569060	0.256794	100.000000
1478.000000	8.575466	0.262279	100.000000
1479.000000	8.581817	0.253669	100.000000
1480.000000	8.588131	0.255797	100.000000
1481.000000	8.594407	0.252552	100.000000
1482.000000	8.600632	0.257581	100.000000
1483.000000	8.606816	0.255917	100.000000
1484.000000	8.612971	0.274944	100.000000
1485.000000	8.619100	0.247646	100.000000
1486.000000	8.625202	0.252827	100.000000
1487.000000	8.631262	0.246136	100.000000
1488.000000	8.637269	0.242702	100.000000
1489.000000	8.643225	0.246341	100.000000
1490.000000	8.649158	0.280501	100.000000
1491.000000	8.655092	0.261990	100.000000
1492.000000	8.661024	0.263855	100.000000
1493.000000	8.666945	0.255272	100.000000
1494.000000	8.672842	0.258819	100.000000
1495.000000	8.678711	0.272376	100.000000
1496.000000	8.684561	0.276013	100.000000
1497.000000	8.690403	0.271235	100.000000
1498.000000	8.696248	0.269542	100.000000
1499.000000	8.702086	0.245769	100.000000
1500.000000	8.707897	0.264613	100.000000
1501.000000	8.713694	0.257774	100.000000
1502.000000	8.719512	0.276970	100.000000
1503.000000	8.725370	0.268423	100.000000
1504.000000	8.731249	0.249832	100.000000
1505.000000	8.737123	0.266877	100.000000
1506.000000	8.742998	0.273889	100.000000
1507.000000	8.748901	0.289643	100.000000
1508.000000	8.754839	0.262182	100.000000
1509.000000	8.760796	0.260961	100.000000
1510.000000	8.766750	0.269220	100.000000
1511.000000	8.772709	0.279557	100.000000
1512.000000	8.778685	0.267850	100.000000
1513.000000	8.784671	0.265995	100.000000
1514.000000	8.790664	0.276770	100.000000
1515.000000	8.796665	0.254549	100.000000
1516.000000	8.802662	0.256112	100.000000
1517.000000	8.808644	0.259815	100.000000
1518.000000	8.814650	0.285408	100.000000
1519.000000	8.820721	0.282391	100.000000
1520.000000	8.826820	0.258671	100.000000
1521.000000	8.832910	0.263949	100.000000
1522.000000	8.838972	0.267225	100.000000
1523.000000	8.845007	0.267192	100.000000
1524.000000	8.851035	0.285929	100.000000
1525.000000	8.857067	0.270811	100.000000
1526.000000	8.863114	0.290036	100.000000
1527.000000	8.869173	0.266426	100.000000
1528.000000	8.875220	0.254372	100.000000
1529.000000	8.881242	0.285328	100.000000
1530.000000	8.887255	0.288959	100.000000
1531.000000	8.893279	0.278525	100.000000
1532.000000	8.899330	0.270362	100.000000
1533.000000	8.905404	0.275747	100.000000
1534.000000	8.911480	0.280748	100.000000
1535.000000	8.917549	0.287774	100.000000
1536.000000	8.923622	0.270691	100.000000
1537.000000	8.929720	0.276159	100.000000
1538.000000	8.935851	0.276294	100.000000
1539.000000	8.941994	0.278037	100.000000
1540.000000	8.948132	0.264441	100.000000
1541.000000	8.954271	0.283358	100.000000
1542.000000	8.960429	0.278503	100.000000
1543.000000	8.966623	0.295853	100.000000
1544.000000	8.972856	0.272062	100.000000
1545.000000	8.979107	0.282561	100.000000
1546.000000	8.985362	0.291046	100.000000
1547.000000	8.991637	0.305048	100.000000
1548.000000	8.997958	0.291520	100.000000
1549.000000	9.004329	0.288407	100.000000
1550.000000	9.010738	0.297133	100.000000
1551.000000	9.017175	0.288543	100.000000
1552.000000	9.023635	0.285301	100.000000
1553.000000	9.030141	0.304218	100.000000
1554.000000	9.036709	0.283951	100.000000
1555.000000	9.043330	0.294576	100.000000
1556.000000	9.049994	0.291325	100.000000
1557.000000	9.056708	0.296319	100.000000
1558.000000	9.063482	0.308565	100.000000
1559.000000	9.070329	0.301834	100.000000
1560.000000	9.077263	0.300669	100.000000
1561.000000	9.084262	0.302308	100.000000
1562.000000	9.091290	0.311261	100.000000
1563.000000	9.098352	0.304295	100.000000
1564.000000	9.105476	0.306593	100.000000
1565.000000	9.112665	0.310083	100.000000
1566.000000	9.119896	0.289696	100.000000
1567.000000	9.127144	0.314068	100.000000
1568.000000	9.134419	0.310451	100.000000
1569.000000	9.141755	0.300609	100.000000
1570.000000	9.149172	0.311236	100.000000
1571.000000	9.156661	0.314635	100.000000
1572.000000	9.164196	0.304628	100.000000
1573.000000	9.171763	0.301267	100.000000
1574.000000	9.179374	0.310176	100.000000
1575.000000	9.187048	0.310484	100.000000
1576.000000	9.194778	0.305713	100.000000
1577.000000	9.202528	0.286813	100.000000
1578.000000	9.210268	0.298711	100.000000
1579.000000	9.217989	0.295765	100.000000
1580.000000	9.225703	0.314586	100.000000
1581.000000	9.233417	0.304933	100.000000
1582.000000	9.241122	0.282776	100.000000
1583.000000	9.248807	0.282716	100.000000
1584.000000	9.256473	0.293266	100.000000
1585.000000	9.264129	0.290049	100.000000
1586.000000	9.271765	0.292249	100.000000
1587.000000	9.279368	0.281940	100.000000
1588.000000	9.286949	0.280242	100.000000
1589.000000	9.294525	0.297730	100.000000
1590.000000	9.302102	0.281063	100.000000
1591.000000	9.309671	0.267603	100.000000
1592.000000	9.317221	0.276411	100.000000
1593.000000	9.324751	0.265903	100.000000
1594.000000	9.332281	0.271416	100.000000
1595.000000	9.339827	0.270202	100.000000
1596.000000	9.347390	0.270487	100.000000
1597.000000	9.354952	0.255267	100.000000
1598.000000	9.362509	0.280736	100.000000
1599.000000	9.370076	0.255622	100.000000
1600.000000	9.377673	0.252170	100.000000
1601.000000	9.385306	0.242389	100.000000
1602.000000	9.392944	0.245985	100.000000
1603.000000	9.400546	0.249385	100.000000
1604.000000	9.408112	0.241117	100.000000
1605.000000	9.415670	0.258502	100.000000
1606.000000	9.423233	0.227761	100.000000
1607.000000	9.430799	0.233750	100.000000
1608.000000	9.438362	0.231941	100.000000
1609.000000	9.445904	0.215120	100.000000
1610.000000	9.453414	0.220259	100.000000
1611.000000	9.460912	0.222330	100.000000
1612.000000	9.468412	0.215709	100.000000
1613.000000	9.475910	0.202527	100.000000
1614.000000	9.483394	0.200685	100.000000
1615.000000	9.490866	0.204350	100.000000
1616.000000	9.498342	0.203077	100.000000
1617.000000	9.505837	0.210176	100.000000
1618.000000	9.513357	0.181271	100.000000
1619.000000	9.520896	0.198719	100.000000
1620.000000	9.528451	0.190608	100.000000
1621.000000	9.536029	0.175244	100.000000
1622.000000	9.543639	0.196015	100.000000
1623.000000	9.551297	0.186006	100.000000
1624.000000	9.559010	0.177755	100.000000
1625.000000	9.566774	0.177997	100.000000
1626.000000	9.574571	0.176411	100.000000
1627.000000	9.582410	0.197101	100.000000
1628.000000	9.590315	0.175293	100.000000
1629.000000	9.598303	0.179044	100.000000
1630.000000	9.606373	0.184485	100.000000
1631.000000	9.614495	0.158872	100.000000
1632.000000	9.622655	0.191498	100.000000
1633.000000	9.630867	0.179890	100.000000
1634.000000	9.639131	0.166625	100.000000
1635.000000	9.647439	0.173483	100.000000
1636.000000	9.655778	0.160126	100.000000
1637.000000	9.664137	0.173919	100.000000
1638.000000	9.672519	0.165611	100.000000
1639.000000	9.680930	0.177760	100.000000
1640.000000	9.689374	0.162792	100.000000
1641.000000	9.697848	0.168194	100.000000
1642.000000	9.706334	0.149516	100.000000
1643.000000	9.714806	0.135959	100.000000
1644.000000	9.723261	0.158274	100.000000
1645.000000	9.731724	0.148561	100.000000
1646.000000	9.740208	0.155904	100.000000
1647.000000	9.748696	0.132003	100.000000
1648.000000	9.757164	0.132283	100.000000
1649.000000	9.765609	0.149584	100.000000
1650.000000	9.774049	0.137592	100.000000
1651.000000	9.782514	0.150184	100.000000
1652.000000	9.791012	0.148392	100.000000
1653.000000	9.799519	0.138716	100.000000
1654.000000	9.808013	0.135202	100.000000
1655.000000	9.816486	0.113358	100.000000
1656.000000	9.824956	0.127215	100.000000
1657.000000	9.833434	0.125872	100.000000
1658.000000	9.841904	0.124471	100.000000
1659.000000	9.850355	0.117587	100.000000
1660.000000	9.858783	0.104130	100.000000
1661.000000	9.867175	0.116385	100.000000
1662.000000	9.875531	0.123754	100.000000
1663.000000	9.883860	0.118693	100.000000
1664.000000	9.892154	0.098366	100.000000
1665.000000	9.900403	0.091713	100.000000
1666.000000	9.908602	0.110519	100.000000
1667.000000	9.916767	0.098714	100.000000
1668.000000	9.924925	0.100854	100.000000
1669.000000	9.933078	0.106159	100.000000
1670.000000	9.941203	0.099562	100.000000
1671.000000	9.949268	0.094742	100.000000
1672.000000	9.957259	0.098460	100.000000
1673.000000	9.965199	0.094978	100.000000
1674.000000	9.973102	0.095317	100.000000
1675.000000	9.980961	0.085106	100.000000
1676.000000	9.988766	0.085298	100.000000
1677.000000	9.996522	0.094055	100.000000
1678.000000	10.004244	0.090875	100.000000
1679.000000	10.011921	0.082447	100.000000
1680.000000	10.019529	0.083009	100.000000
1681.000000	10.027048	0.079521	100.000000
1682.000000	10.034470	0.076150	100.000000
1683.000000	10.041816	0.069545	100.000000
1684.000000	10.049116	0.063128	100.000000
1685.000000	10.056379	0.089146	100.000000
1686.000000	10.063588	0.054784	100.000000
1687.000000	10.070726	0.065178	100.000000
1688.000000	10.077801	0.058543	100.000000
1689.000000	10.084831	0.060438	100.000000
1690.000000	10.091843	0.059079	100.000000
1691.000000	10.098839	0.062809	100.000000
1692.000000	10.105799	0.056061	100.000000
1693.000000	10.112723	0.040547	100.000000
1694.000000	10.119625	0.048017	100.000000
1695.000000	10.126523	0.075471	100.000000
1696.000000	10.133432	0.036238	100.000000
1697.000000	10.140347	0.048473	100.000000
1698.000000	10.147259	0.048392	100.000000
1699.000000	10.154191	0.048898	100.000000
1700.000000	10.161170	0.060922	100.000000
1701.000000	10.168190	0.049317	100.000000
1702.000000	10.175255	0.049514	100.000000
1703.000000	10.182363	0.049801	100.000000
1704.000000	10.189484	0.039695	100.000000
1705.000000	10.196601	0.042983	100.000000
1706.000000	10.203755	0.058726	100.000000
1707.000000	10.210983	0.064328	100.000000
1708.000000	10.218261	0.045559	100.000000
1709.000000	10.225549	0.038986	100.000000
1710.000000	10.232828	0.037209	100.000000
1711.000000	10.240096	0.027134	100.000000
1712.000000	10.247370	0.042823	100.000000
1713.000000	10.254658	0.027791	100.000000
1714.000000	10.261961	0.046853	100.000000
1715.000000	10.269273	0.048456	100.000000
1716.000000	10.276584	0.026484	100.000000
1717.000000	10.283900	0.043411	100.000000
1718.000000	10.291237	0.025259	100.000000
1719.000000	10.298597	0.027121	100.000000
1720.000000	10.305961	0.030668	100.000000
1721.000000	10.313302	0.018692	100.000000
1722.000000	10.320615	0.039324	100.000000
1723.000000	10.327925	0.017267	100.000000
1724.000000	10.335247	0.031226	100.000000
1725.000000	10.342572	0.033266	100.000000
1726.000000	10.349880	0.019717	100.000000
1727.000000	10.357156	0.018129	100.000000
1728.000000	10.364395	0.011515	100.000000
1729.000000	10.371609	0.008055	100.000000
1730.000000	10.378820	0.016879	100.000000
1731.000000	10.386041	0.022215	100.000000
1732.000000	10.393251	0.017369	100.000000
1733.000000	10.400410	0.017803	100.000000
1734.000000	10.407509	0.019125	100.000000
1735.000000	10.414583	-0.014732	100.000000
1736.000000	10.421657	0.002505	100.000000
1737.000000	10.428721	0.025110	100.000000
1738.000000	10.435761	-0.005694	100.000000
1739.000000	10.442770	-0.005479	100.000000
1740.000000	10.449754	-0.003677	100.000000
1741.000000	10.456724	0.005070	100.000000
1742.000000	10.463692	0.001951	100.000000
1743.000000	10.470661	-0.001427	100.000000
1744.000000	10.477620	-0.013165	100.000000
1745.000000	10.484560	0.004151	100.000000
1746.000000	10.491495	-0.006255	100.000000
1747.000000	10.498446	-0.005963	100.000000
1748.000000	10.505413	-0.022567	100.000000
1749.000000	10.512384	-0.019007	100.000000
1750.000000	10.519360	-0.012294	100.000000
1751.000000	10.526341	-0.031081	100.000000
1752.000000	10.533330	-0.025562	100.000000
1753.000000	10.540347	-0.008272	100.000000
1754.000000	10.547401	-0.018389	100.000000
1755.000000	10.554483	-0.031630	100.000000
1756.000000	10.561571	-0.019692	100.000000
1757.000000	10.568655	-0.034896	100.000000
1758.000000	10.575745	-0.009237	100.000000
1759.000000	10.582846	-0.024506	100.000000
1760.000000	10.589962	-0.002087	100.000000
1761.000000	10.597097	-0.025657	100.000000
1762.000000	10.604247	-0.025656	100.000000
1763.000000	10.611410	-0.034054	100.000000
1764.000000	10.618603	-0.039255	100.000000
1765.000000	10.625844	-0.013164	100.000000
1766.000000	10.633129	-0.016334	100.000000
1767.000000	10.640445	-0.017922	100.000000
1768.000000	10.647789	-0.010916	100.000000
1769.000000	10.655168	-0.019285	100.000000
1770.000000	10.662601	-0.018870	100.000000
1771.000000	10.670087	-0.025398	100.000000
1772.000000	10.677602	-0.040851	100.000000
1773.000000	10.685131	-0.039290	100.000000
1774.000000	10.692682	-0.036997	100.000000
1775.000000	10.700281	-0.000626	100.000000
1776.000000	10.707930	-0.017787	100.000000
1777.000000	10.715608	-0.038162	100.000000
1778.000000	10.723291	-0.031167	100.000000
1779.000000	10.730980	-0.025761	100.000000
1780.000000	10.738690	-0.008504	100.000000
1781.000000	10.746449	-0.020345	100.000000
1782.000000	10.754268	-0.033973	100.000000
1783.000000	10.762122	-0.033652	100.000000
1784.000000	10.769979	-0.035205	100.000000
1785.000000	10.777831	-0.024878	100.000000
1786.000000	10.785704	-0.023150	100.000000
1787.000000	10.793617	-0.034656	100.000000
1788.000000	10.801550	-0.048228	100.000000
1789.000000	10.809474	-0.030962	100.000000
1790.000000	10.817382	-0.008782	100.000000
1791.000000	10.825289	-0.018537	100.000000
1792.000000	10.833216	-0.028875	100.000000
1793.000000	10.841149	-0.043648	100.000000
1794.000000	10.849044	-0.030205	100.000000
1795.000000	10.856877	-0.028205	100.000000
1796.000000	10.864658	-0.034734	100.000000
1797.000000	10.872402	-0.038185	100.000000
1798.000000	10.880122	-0.025930	100.000000
1799.000000	10.887819	-0.042874	100.000000
1800.000000	10.895482	-0.036065	100.000000
1801.000000	10.903083	-0.035709	100.000000
1802.000000	10.910619	-0.038789	100.000000
1803.000000	10.918127	-0.040828	100.000000
1804.000000	10.925617	-0.035080	100.000000
1805.000000	10.933042	-0.042092	100.000000
1806.000000	10.940367	-0.052156	100.000000
1807.000000	10.947587	-0.040145	100.000000
1808.000000	10.954719	-0.040037	100.000000
1809.000000	10.961787	-0.022583	100.000000
1810.000000	10.968791	-0.037680	100.000000
1811.000000	10.975707	-0.046139	100.000000
1812.000000	10.982513	-0.032740	100.000000
1813.000000	10.989229	-0.035808	100.000000
1814.000000	10.995880	-0.045809	100.000000
1815.000000	11.002474	-0.044128	100.000000
1816.000000	11.009001	-0.038551	100.000000
1817.000000	11.015435	-0.057354	100.000000
1818.000000	11.021761	-0.064200	100.000000
1819.000000	11.027994	-0.036706	100.000000
1820.000000	11.034160	-0.046665	100.000000
1821.000000	11.040262	-0.049825	100.000000
1822.000000	11.046285	-0.072030	100.000000
1823.000000	11.052229	-0.046235	100.000000
1824.000000	11.058098	-0.029199	100.000000
1825.000000	11.063906	-0.045963	100.000000
1826.000000	11.069672	-0.047320	100.000000
1827.000000	11.075403	-0.064644	100.000000
1828.000000	11.081084	-0.061020	100.000000
1829.000000	11.086712	-0.047274	100.000000
1830.000000	11.092313	-0.048619	100.000000
1831.000000	11.097910	-0.053446	100.000000
1832.000000	11.103505	-0.044600	100.000000
1833.000000	11.109096	-0.065425	100.000000
1834.000000	11.114686	-0.054611	100.000000
1835.000000	11.120288	-0.042627	100.000000
1836.000000	11.125922	-0.045858	100.000000
1837.000000	11.131599	-0.054053	100.000000
1838.000000	11.137312	-0.048908	100.000000
1839.000000	11.143047	-0.048753	100.000000
1840.000000	11.148795	-0.055157	100.000000
1841.000000	11.154572	-0.032986	100.000000
1842.000000	11.160420	-0.044926	100.000000
1843.000000	11.166344	-0.049649	100.000000
1844.000000	11.172315	-0.049456	100.000000
1845.000000	11.178309	-0.063032	100.000000
1846.000000	11.184322	-0.032301	100.000000
1847.000000	11.190368	-0.040447	100.000000
1848.000000	11.196451	-0.041727	100.000000
1849.000000	11.202550	-0.051921	100.000000
1850.000000	11.208634	-0.055311	100.000000
1851.000000	11.214702	-0.053602	100.000000
1852.000000	11.220767	-0.037972	100.000000
1853.000000	11.226833	-0.056516	100.000000
1854.000000	11.232897	-0.048056	100.000000
1855.000000	11.238949	-0.062988	100.000000
1856.000000	11.244967	-0.064975	100.000000
1857.000000	11.250955	-0.066551	100.000000
1858.000000	11.256927	-0.054485	100.000000
1859.000000	11.262879	-0.055740	100.000000
1860.000000	11.268795	-0.060642	100.000000
1861.000000	11.274673	-0.077768	100.000000
1862.000000	11.280507	-0.063966	100.000000
1863.000000	11.286287	-0.055755	100.000000
1864.000000	11.292012	-0.072112	100.000000
1865.000000	11.297693	-0.071951	100.000000
1866.000000	11.303313	-0.063317	100.000000
1867.000000	11.308850	-0.063233	100.000000
1868.000000	11.314310	-0.078662	100.000000
1869.000000	11.319720	-0.057849	100.000000
1870.000000	11.325094	-0.078189	100.000000
1871.000000	11.330406	-0.088318	100.000000
1872.000000	11.335624	-0.093586	100.000000
1873.000000	11.340761	-0.067676	100.000000
1874.000000	11.345840	-0.088167	100.000000
1875.000000	11.350878	-0.062087	100.000000
1876.000000	11.355883	-0.077325	100.000000
1877.000000	11.360845	-0.075601	100.000000
1878.000000	11.365754	-0.094225	100.000000
1879.000000	11.370617	-0.097536	100.000000
1880.000000	11.375448	-0.082011	100.000000
1881.000000	11.380266	-0.085021	100.000000
1882.000000	11.385081	-0.081353	100.000000
1883.000000	11.389864	-0.096969	100.000000
1884.000000	11.394601	-0.094965	100.000000
1885.000000	11.399301	-0.081379	100.000000
1886.000000	11.403977	-0.087891	100.000000
1887.000000	11.408649	-0.096207	100.000000
1888.000000	11.413311	-0.084085	100.000000
1889.000000	11.417942	-0.111441	100.000000
1890.000000	11.422538	-0.123529	100.000000
1891.000000	11.427119	-0.097729	100.000000
1892.000000	11.431680	-0.091985	100.000000
1893.000000	11.436198	-0.109163	100.000000
1894.000000	11.440659	-0.105504	100.000000
1895.000000	11.445065	-0.107272	100.000000
1896.000000	11.449438	-0.098768	100.000000
1897.000000	11.453804	-0.127585	100.000000
1898.000000	11.458164	-0.117134	100.000000
1899.000000	11.462497	-0.111474	100.000000
1900.000000	11.466786	-0.103102	100.000000
1901.000000	11.471042	-0.120155	100.000000
1902.000000	11.475285	-0.104700	100.000000
1903.000000	11.479520	-0.116283	100.000000
1904.000000	11.483738	-0.129600	100.000000
1905.000000	11.487932	-0.129851	100.000000
1906.000000	11.492102	-0.121206	100.000000
1907.000000	11.496262	-0.116045	100.000000
1908.000000	11.500440	-0.117504	100.000000
1909.000000	11.504662	-0.110357	100.000000
1910.000000	11.508928	-0.129358	100.000000
1911.000000	11.513206	-0.123906	100.000000
1912.000000	11.517482	-0.120382	100.000000
1913.000000	11.521773	-0.132213	100.000000
1914.000000	11.526097	-0.118202	100.000000
1915.000000	11.530449	-0.126722	100.000000
1916.000000	11.534810	-0.128134	100.000000
1917.000000	11.539162	-0.123177	100.000000
1918.000000	11.543508	-0.123166	100.000000
1919.000000	11.547864	-0.143586	100.000000
1920.000000	11.552243	-0.124621	100.000000
1921.000000	11.556646	-0.127673	100.000000
1922.000000	11.561061	-0.146437	100.000000
1923.000000	11.565461	-0.127587	100.000000
1924.000000	11.569833	-0.120543	100.000000
1925.000000	11.574193	-0.134219	100.000000
1926.000000	11.578557	-0.110074	100.000000
1927.000000	11.582925	-0.138835	100.000000
1928.000000	11.587279	-0.147497	100.000000
1929.000000	11.591599	-0.137157	100.000000
1930.000000	11.595886	-0.148983	100.000000
1931.000000	11.600153	-0.136692	100.000000
1932.000000	11.604388	-0.153883	100.000000
1933.000000	11.608568	-0.150226	100.000000
1934.000000	11.612680	-0.146939	100.000000
1935.000000	11.616747	-0.139764	100.000000
1936.000000	11.620819	-0.147976	100.000000
1937.000000	11.624899	-0.135975	100.000000
1938.000000	11.628963	-0.140859	100.000000
1939.000000	11.632991	-0.144698	100.000000
1940.000000	11.636939	-0.148030	100.000000
1941.000000	11.640776	-0.130789	100.000000
1942.000000	11.644527	-0.161474	100.000000
1943.000000	11.648240	-0.152544	100.000000
1944.000000	11.651950	-0.160773	100.000000
1945.000000	11.655650	-0.172876	100.000000
1946.000000	11.659325	-0.162710	100.000000
1947.000000	11.662986	-0.148541	100.000000
1948.000000	11.666641	-0.162348	100.000000
1949.000000	11.670265	-0.165650	100.000000
1950.000000	11.673811	-0.170862	100.000000
1951.000000	11.677244	-0.157384	100.000000
1952.000000	11.680579	-0.153610	100.000000
1953.000000	11.683836	-0.151478	100.000000
1954.000000	11.687015	-0.170177	100.000000
1955.000000	11.690119	-0.189009	100.000000
1956.000000	11.693179	-0.153255	100.000000
1957.000000	11.696258	-0.158082	100.000000
1958.000000	11.699398	-0.135664	100.000000
1959.000000	11.702576	-0.173089	100.000000
1960.000000	11.705756	-0.183563	100.000000
1961.000000	11.708908	-0.174922	100.000000
1962.000000	11.712014	-0.171506	100.000000
1963.000000	11.715074	-0.160979	100.000000
1964.000000	11.718103	-0.167437	100.000000
1965.000000	11.721110	-0.169061	100.000000
1966.000000	11.724104	-0.169172	100.000000
1967.000000	11.727107	-0.160428	100.000000
1968.000000	11.730145	-0.160117	100.000000
1969.000000	11.733220	-0.173830	100.000000
1970.000000	11.736316	-0.146136	100.000000
1971.000000	11.739412	-0.175387	100.000000
1972.000000	11.742486	-0.195799	100.000000
1973.000000	11.745547	-0.190658	100.000000
1974.000000	11.748633	-0.190416	100.000000
1975.000000	11.751766	-0.156086	100.000000
1976.000000	11.754930	-0.166065	100.000000
1977.000000	11.758100	-0.167877	100.000000
1978.000000	11.761272	-0.162849	100.000000
1979.000000	11.764474	-0.179479	100.000000
1980.000000	11.767722	-0.182655	100.000000
1981.000000	11.770993	-0.179148	100.000000
1982.000000	11.774266	-0.179024	100.000000
1983.000000	11.777514	-0.186013	100.000000
1984.000000	11.780727	-0.194559	100.000000
1985.000000	11.783944	-0.188923	100.000000
1986.000000	11.787192	-0.198883	100.000000
1987.000000	11.790478	-0.171637	100.000000
1988.000000	11.793794	-0.200644	100.000000
1989.000000	11.797129	-0.197102	100.000000
1990.000000	11.800499	-0.193767	100.000000
1991.000000	11.803916	-0.186640	100.000000
1992.000000	11.807366	-0.184713	100.000000
1993.000000	11.810830	-0.186350	100.000000
1994.000000	11.814301	-0.198479	100.000000
1995.000000	11.817786	-0.191840	100.000000
1996.000000	11.821282	-0.191368	100.000000
1997.000000	11.824790	-0.190925	100.000000
1998.000000	11.828296	-0.213236	100.000000
1999.000000	11.831774	-0.209673	100.000000
2000.000000	11.835209	-0.191058	100.000000
2001.000000	11.838629	-0.189082	100.000000
2002.000000	11.842062	-0.195679	100.000000
2003.000000	11.845494	-0.188566	100.000000
2004.000000	11.848896	-0.202527	100.000000
2005.000000	11.852266	-0.198999	100.000000
2006.000000	11.855618	-0.200536	100.000000
2007.000000	11.858977	-0.181633	100.000000
2008.000000	11.862336	-0.205669	100.000000
2009.000000	11.865672	-0.203614	100.000000
2010.000000	11.868978	-0.193066	100.000000
2011.000000	11.872265	-0.194868	100.000000
2012.000000	11.875545	-0.191080	100.000000
2013.000000	11.878828	-0.187456	100.000000
2014.000000	11.882117	-0.185644	100.000000
2015.000000	11.885409	-0.180607	100.000000
2016.000000	11.888698	-0.206399	100.000000
2017.000000	11.891990	-0.180386	100.000000
2018.000000	11.895275	-0.190649	100.000000
2019.000000	11.898543	-0.183612	100.000000
2020.000000	11.901790	-0.207159	100.000000
2021.000000	11.905014	-0.197203	100.000000
2022.000000	11.908229	-0.179948	100.000000
2023.000000	11.911442	-0.181425	100.000000
2024.000000	11.914631	-0.181389	100.000000
2025.000000	11.917768	-0.198401	100.000000
2026.000000	11.920842	-0.199877	100.000000
2027.000000	11.923864	-0.194609	100.000000
2028.000000	11.926860	-0.192824	100.000000
2029.000000	11.929844	-0.168858	100.000000
2030.000000	11.932813	-0.180501	100.000000
2031.000000	11.935757	-0.206349	100.000000
2032.000000	11.938673	-0.185754	100.000000
2033.000000	11.941574	-0.202512	100.000000
2034.000000	11.944473	-0.188566	100.000000
2035.000000	11.947364	-0.198744	100.000000
2036.000000	11.950219	-0.200617	100.000000
2037.000000	11.953030	-0.195440	100.000000
2038.000000	11.955825	-0.193778	100.000000
2039.000000	11.958632	-0.184846	100.000000
2040.000000	11.961436	-0.203269	100.000000
2041.000000	11.964213	-0.211947	100.000000
2042.000000	11.966972	-0.206986	100.000000
2043.000000	11.969734	-0.189714	100.000000
2044.000000	11.972508	-0.180867	100.000000
2045.000000	11.975305	-0.191074	100.000000
2046.000000	11.978120	-0.194404	100.000000
2047.000000	11.980937	-0.204699	100.000000
2048.000000	11.983759	-0.199561	100.000000
2049.000000	11.986616	-0.190705	100.000000
2050.000000	11.989531	-0.171816	100.000000
2051.000000	11.992512	-0.202378	100.000000
2052.000000	11.995537	-0.198783	100.000000
2053.000000	11.998581	-0.205618	100.000000
2054.000000	12.001650	-0.197182	100.000000
2055.000000	12.004764	-0.176523	100.000000
2056.000000	12.007951	-0.184659	100.000000
2057.000000	12.011209	-0.203290	100.000000
2058.000000	12.014496	-0.193069	100.000000
2059.000000	12.017798	-0.181143	100.000000
2060.000000	12.021151	-0.174340	100.000000
2061.000000	12.024585	-0.213404	100.000000
2062.000000	12.028090	-0.192824	100.000000
2063.000000	12.031641	-0.202820	100.000000
2064.000000	12.035211	-0.201061	100.000000
2065.000000	12.038795	-0.197628	100.000000
2066.000000	12.042412	-0.192336	100.000000
2067.000000	12.046081	-0.182124	100.000000
2068.000000	12.049792	-0.188736	100.000000
2069.000000	12.053524	-0.195365	100.000000
2070.000000	12.057264	-0.203894	100.000000
2071.000000	12.061022	-0.190144	100.000000
2072.000000	12.064817	-0.203778	100.000000
2073.000000	12.068656	-0.169197	100.000000
2074.000000	12.072522	-0.187964	100.000000
2075.000000	12.076398	-0.187742	100.000000
2076.000000	12.080280	-0.181204	100.000000
2077.000000	12.084191	-0.177570	100.000000
2078.000000	12.088146	-0.189319	100.000000
2079.000000	12.092139	-0.187551	100.000000
2080.000000	12.096146	-0.171842	100.000000
2081.000000	12.100143	-0.185718	100.000000
2082.000000	12.104150	-0.185634	100.000000
2083.000000	12.108205	-0.187098	100.000000
2084.000000	12.112319	-0.181662	100.000000
2085.000000	12.116464	-0.193560	100.000000
2086.000000	12.120615	-0.176478	100.000000
2087.000000	12.124779	-0.176213	100.000000
2088.000000	12.128978	-0.169345	100.000000
2089.000000	12.133227	-0.170910	100.000000
2090.000000	12.137523	-0.170524	100.000000
2091.000000	12.141849	-0.172107	100.000000
2092.000000	12.146191	-0.170574	100.000000
2093.000000	12.150552	-0.167028	100.000000
2094.000000	12.154955	-0.160083	100.000000
2095.000000	12.159405	-0.176781	100.000000
2096.000000	12.163883	-0.175014	100.000000
2097.000000	12.168386	-0.174951	100.000000
2098.000000	12.172927	-0.151118	100.000000
2099.000000	12.177533	-0.142074	100.000000
2100.000000	12.182221	-0.172632	100.000000
2101.000000	12.186977	-0.152005	100.000000
2102.000000	12.191777	-0.152091	100.000000
2103.000000	12.196603	-0.143537	100.000000
2104.000000	12.201467	-0.162485	100.000000
2105.000000	12.206394	-0.143400	100.000000
2106.000000	12.211387	-0.151676	100.000000
2107.000000	12.216423	-0.144765	100.000000
2108.000000	12.221477	-0.147909	100.000000
2109.000000	12.226536	-0.144435	100.000000
2110.000000	12.231610	-0.142793	100.000000
2111.000000	12.236712	-0.137388	100.000000
2112.000000	12.241838	-0.157882	100.000000
2113.000000	12.246966	-0.132017	100.000000
2114.000000	12.252072	-0.147477	100.000000
2115.000000	12.257156	-0.149238	100.000000
2116.000000	12.262248	-0.133573	100.000000
2117.000000	12.267374	-0.129924	100.000000
2118.000000	12.272519	-0.133233	100.000000
2119.000000	12.277662	-0.135024	100.000000
2120.000000	12.282794	-0.128114	100.000000
2121.000000	12.287917	-0.112472	100.000000
2122.000000	12.293054	-0.124309	100.000000
2123.000000	12.298207	-0.136140	100.000000
2124.000000	12.303352	-0.129202	100.000000
2125.000000	12.308474	-0.103665	100.000000
2126.000000	12.313584	-0.126033	100.000000
2127.000000	12.318690	-0.117256	100.000000
2128.000000	12.323799	-0.111906	100.000000
2129.000000	12.328915	-0.108279	100.000000
2130.000000	12.334015	-0.113300	100.000000
2131.000000	12.339085	-0.130585	100.000000
2132.000000	12.344139	-0.106608	100.000000
2133.000000	12.349191	-0.111709	100.000000
2134.000000	12.354233	-0.087096	100.000000
2135.000000	12.359235	-0.107675	100.000000
2136.000000	12.364184	-0.116254	100.000000
2137.000000	12.369084	-0.107931	100.000000
2138.000000	12.373951	-0.088884	100.000000
2139.000000	12.378809	-0.086663	100.000000
2140.000000	12.383659	-0.085157	100.000000
2141.000000	12.388479	-0.112474	100.000000
2142.000000	12.393245	-0.096975	100.000000
2143.000000	12.397956	-0.086827	100.000000
2144.000000	12.402614	-0.082998	100.000000
2145.000000	12.407207	-0.094859	100.000000
2146.000000	12.411742	-0.086318	100.000000
2147.000000	12.416246	-0.105235	100.000000
2148.000000	12.420709	-0.084567	100.000000
2149.000000	12.425120	-0.069067	100.000000
2150.000000	12.429484	-0.087881	100.000000
2151.000000	12.433811	-0.086021	100.000000
2152.000000	12.438101	-0.091096	100.000000
2153.000000	12.442332	-0.092802	100.000000
2154.000000	12.446497	-0.087599	100.000000
2155.000000	12.450620	-0.072089	100.000000
2156.000000	12.454726	-0.095579	100.000000
2157.000000	12.458803	-0.075196	100.000000
2158.000000	12.462831	-0.069844	100.000000
2159.000000	12.466822	-0.080258	100.000000
2160.000000	12.470805	-0.057827	100.000000
2161.000000	12.474796	-0.078190	100.000000
2162.000000	12.478786	-0.081454	100.000000
2163.000000	12.482758	-0.074345	100.000000
2164.000000	12.486721	-0.060893	100.000000
2165.000000	12.490708	-0.053796	100.000000
2166.000000	12.494734	-0.050030	100.000000
2167.000000	12.498778	-0.063888	100.000000
2168.000000	12.502814	-0.065474	100.000000
2169.000000	12.506840	-0.039599	100.000000
2170.000000	12.510879	-0.044706	100.000000
2171.000000	12.514959	-0.035829	100.000000
2172.000000	12.519084	-0.041043	100.000000
2173.000000	12.523225	-0.044204	100.000000
2174.000000	12.527368	-0.037758	100.000000
2175.000000	12.531538	-0.027032	100.000000
2176.000000	12.535756	-0.012981	100.000000
2177.000000	12.540007	-0.031711	100.000000
2178.000000	12.544262	-0.016328	100.000000
2179.000000	12.548517	-0.026645	100.000000
2180.000000	12.552775	-0.043507	100.000000
2181.000000	12.557038	-0.017863	100.000000
2182.000000	12.561311	-0.005589	100.000000
2183.000000	12.565606	0.004714	100.000000
2184.000000	12.569912	-0.024066	100.000000
2185.000000	12.574200	-0.015692	100.000000
2186.000000	12.578474	-0.001916	100.000000
2187.000000	12.582755	-0.013686	100.000000
2188.000000	12.587044	-0.003109	100.000000
2189.000000	12.591328	-0.008342	100.000000
2190.000000	12.595581	-0.018858	100.000000
2191.000000	12.599781	-0.006525	100.000000
2192.000000	12.603926	0.022794	100.000000
2193.000000	12.608037	-0.001051	100.000000
2194.000000	12.612115	0.002580	100.000000
2195.000000	12.616142	0.004046	100.000000
2196.000000	12.620102	0.000507	100.000000
2197.000000	12.624000	-0.014845	100.000000
2198.000000	12.627846	0.002578	100.000000
2199.000000	12.631629	0.009448	100.000000
2200.000000	12.635343	0.000960	100.000000
2201.000000	12.638983	0.004373	100.000000
2202.000000	12.642548	0.012792	100.000000
2203.000000	12.646051	0.031897	100.000000
2204.000000	12.649488	0.013301	100.000000
2205.000000	12.652837	0.016937	100.000000
2206.000000	12.656066	0.021711	100.000000
2207.000000	12.659164	0.011543	100.000000
2208.000000	12.662159	0.021745	100.000000
2209.000000	12.665078	0.039112	100.000000
2210.000000	12.667927	0.020637	100.000000
2211.000000	12.670699	0.025698	100.000000
2212.000000	12.673386	0.023783	100.000000
2213.000000	12.675989	0.006584	100.000000
2214.000000	12.678516	0.018785	100.000000
2215.000000	12.680951	0.036045	100.000000
2216.000000	12.683264	0.027503	100.000000
2217.000000	12.685461	0.018775	100.000000
2218.000000	12.687568	0.023650	100.000000
2219.000000	12.689613	0.042712	100.000000
2220.000000	12.691610	0.022589	100.000000
2221.000000	12.693537	0.020716	100.000000
2222.000000	12.695369	0.017293	100.000000
2223.000000	12.697111	0.003504	100.000000
2224.000000	12.698785	0.014018	100.000000
2225.000000	12.700423	0.029493	100.000000
2226.000000	12.702030	0.046495	100.000000
2227.000000	12.703599	0.019803	100.000000
2228.000000	12.705133	0.022573	100.000000
2229.000000	12.706650	0.015901	100.000000
2230.000000	12.708188	0.037959	100.000000
2231.000000	12.709761	0.038229	100.000000
2232.000000	12.711356	0.019679	100.000000
2233.000000	12.712953	0.031662	100.000000
2234.000000	12.714546	0.021253	100.000000
2235.000000	12.716145	0.034810	100.000000
2236.000000	12.717772	0.038674	100.000000
2237.000000	12.719446	0.037015	100.000000
2238.000000	12.721165	0.023300	100.000000
2239.000000	12.722913	0.030369	100.000000
2240.000000	12.724671	0.033440	100.000000
2241.000000	12.726443	0.047349	100.000000
2242.000000	12.728247	0.030362	100.000000
2243.000000	12.730084	0.030602	100.000000
2244.000000	12.731945	0.027133	100.000000
2245.000000	12.733822	0.045985	100.000000
2246.000000	12.735727	0.045858	100.000000
2247.000000	12.737675	0.042633	100.000000
2248.000000	12.739661	0.034293	100.000000
2249.000000	12.741666	0.039178	100.000000
2250.000000	12.743686	0.053053	100.000000
2251.000000	12.745727	0.054873	100.000000
2252.000000	12.747797	0.046130	100.000000
2253.000000	12.749904	0.054816	100.000000
2254.000000	12.752051	0.045102	100.000000
2255.000000	12.754220	0.049994	100.000000
2256.000000	12.756388	0.029332	100.000000
2257.000000	12.758548	0.044675	100.000000
2258.000000	12.760715	0.044927	100.000000
2259.000000	12.762916	0.033188	100.000000
2260.000000	12.765145	0.050562	100.000000
2261.000000	12.767378	0.045310	100.000000
2262.000000	12.769618	0.051726	100.000000
2263.000000	12.771882	0.055762	100.000000
2264.000000	12.774182	0.050615	100.000000
2265.000000	12.776521	0.055859	100.000000
2266.000000	12.778889	0.045710	100.000000
2267.000000	12.781263	0.059395	100.000000
2268.000000	12.783645	0.059318	100.000000
2269.000000	12.786063	0.059189	100.000000
2270.000000	12.788540	0.068103	100.000000
2271.000000	12.791082	0.064979	100.000000
2272.000000	12.793660	0.061598	100.000000
2273.000000	12.796242	0.068214	100.000000
2274.000000	12.798829	0.066249	100.000000
2275.000000	12.801444	0.052926	100.000000
2276.000000	12.804103	0.084006	100.000000
2277.000000	12.806793	0.065428	100.000000
2278.000000	12.809506	0.070308	100.000000
2279.000000	12.812240	0.061712	100.000000
2280.000000	12.814970	0.065313	100.000000
2281.000000	12.817687	0.087891	100.000000
2282.000000	12.820404	0.065675	100.000000
2283.000000	12.823125	0.087881	100.000000
2284.000000	12.825841	0.068827	100.000000
2285.000000	12.828551	0.074217	100.000000
2286.000000	12.831263	0.076138	100.000000
2287.000000	12.833976	0.074539	100.000000
2288.000000	12.836687	0.077945	100.000000
2289.000000	12.839400	0.089945	100.000000
2290.000000	12.842125	0.071231	100.000000
2291.000000	12.844871	0.088385	100.000000
2292.000000	12.847643	0.086985	100.000000
2293.000000	12.850441	0.083655	100.000000
2294.000000	12.853257	0.085592	100.000000
2295.000000	12.856072	0.102628	100.000000
2296.000000	12.858894	0.098887	100.000000
2297.000000	12.861753	0.096080	100.000000
2298.000000	12.864657	0.092752	100.000000
2299.000000	12.867582	0.085876	100.000000
2300.000000	12.870512	0.080518	100.000000
2301.000000	12.873452	0.113401	100.000000
2302.000000	12.876420	0.108342	100.000000
2303.000000	12.879424	0.101459	100.000000
2304.000000	12.882450	0.092959	100.000000
2305.000000	12.885469	0.101544	100.000000
2306.000000	12.888459	0.092946	100.000000
2307.000000	12.891432	0.099856	100.000000
2308.000000	12.894410	0.101962	100.000000
2309.000000	12.897386	0.101907	100.000000
2310.000000	12.900346	0.091819	100.000000
2311.000000	12.903283	0.096873	100.000000
2312.000000	12.906185	0.088401	100.000000
2313.000000	12.909060	0.108798	100.000000
2314.000000	12.911934	0.112487	100.000000
2315.000000	12.914810	0.102510	100.000000
2316.000000	12.917665	0.100801	100.000000
2317.000000	12.920471	0.097479	100.000000
2318.000000	12.923229	0.119642	100.000000
2319.000000	12.925959	0.110983	100.000000
2320.000000	12.928665	0.099267	100.000000
2321.000000	12.931344	0.123450	100.000000
2322.000000	12.933996	0.103024	100.000000
2323.000000	12.936617	0.113318	100.000000
2324.000000	12.939206	0.120038	100.000000
2325.000000	12.941773	0.126730	100.000000
2326.000000	12.944330	0.118410	100.000000
2327.000000	12.946896	0.118766	100.000000
2328.000000	12.949469	0.122260	100.000000
2329.000000	12.952008	0.111581	100.000000
2330.000000	12.954498	0.127115	100.000000
2331.000000	12.956958	0.120497	100.000000
2332.000000	12.959408	0.113848	100.000000
2333.000000	12.961845	0.122539	100.000000
2334.000000	12.964238	0.119201	100.000000
2335.000000	12.966589	0.118873	100.000000
2336.000000	12.968938	0.127798	100.000000
2337.000000	12.971299	0.129451	100.000000
2338.000000	12.973664	0.114274	100.000000
2339.000000	12.976015	0.115987	100.000000
2340.000000	12.978350	0.145106	100.000000
2341.000000	12.980683	0.134931	100.000000
2342.000000	12.983024	0.116166	100.000000
2343.000000	12.985376	0.138495	100.000000
2344.000000	12.987742	0.140323	100.000000
2345.000000	12.990103	0.119937	100.000000
2346.000000	12.992425	0.121365	100.000000
2347.000000	12.994719	0.136887	100.000000
2348.000000	12.997022	0.132157	100.000000
2349.000000	12.999359	0.147517	100.000000
2350.000000	13.001732	0.162917	100.000000
2351.000000	13.004114	0.127054	100.000000
2352.000000	13.006487	0.130381	100.000000
2353.000000	13.008874	0.145746	100.000000
2354.000000	13.011301	0.139330	100.000000
2355.000000	13.013762	0.141025	100.000000
2356.000000	13.016243	0.147896	100.000000
2357.000000	13.018742	0.165205	100.000000
2358.000000	13.021267	0.137854	100.000000
2359.000000	13.023828	0.161797	100.000000
2360.000000	13.026437	0.166988	100.000000
2361.000000	13.029098	0.160724	100.000000
2362.000000	13.031807	0.158903	100.000000
2363.000000	13.034554	0.174172	100.000000
2364.000000	13.037335	0.153628	100.000000
2365.000000	13.040170	0.167388	100.000000
2366.000000	13.043081	0.172906	100.000000
2367.000000	13.046057	0.174520	100.000000
2368.000000	13.049075	0.164216	100.000000
2369.000000	13.052130	0.163991	100.000000
2370.000000	13.055238	0.176030	100.000000
2371.000000	13.058395	0.164546	100.000000
2372.000000	13.061588	0.174776	100.000000
2373.000000	13.064812	0.186751	100.000000
2374.000000	13.068055	0.186528	100.000000
2375.000000	13.071314	0.179892	100.000000
2376.000000	13.074603	0.190179	100.000000
2377.000000	13.077917	0.178389	100.000000
2378.000000	13.081231	0.199324	100.000000
2379.000000	13.084527	0.198977	100.000000
2380.000000	13.087798	0.192051	100.000000
2381.000000	13.091068	0.209281	100.000000
2382.000000	13.094353	0.192410	100.000000
2383.000000	13.097647	0.183993	100.000000
2384.000000	13.100932	0.188972	100.000000
2385.000000	13.104190	0.185433	100.000000
2386.000000	13.107440	0.212889	100.000000
2387.000000	13.110706	0.190790	100.000000
2388.000000	13.113972	0.191085	100.000000
2389.000000	13.117208	0.202955	100.000000
2390.000000	13.120408	0.196091	100.000000
2391.000000	13.123583	0.218167	100.000000
2392.000000	13.126727	0.175549	100.000000
2393.000000	13.129831	0.187514	100.000000
2394.000000	13.132889	0.196503	100.000000
2395.000000	13.135888	0.196065	100.000000
2396.000000	13.138808	0.196040	100.000000
2397.000000	13.141658	0.198072	100.000000
2398.000000	13.144469	0.210110	100.000000
2399.000000	13.147245	0.199705	100.000000
2400.000000	13.149972	0.201487	100.000000
2401.000000	13.152635	0.182528	100.000000
2402.000000	13.155233	0.204745	100.000000
2403.000000	13.157768	0.209898	100.000000
2404.000000	13.160245	0.218490	100.000000
2405.000000	13.162675	0.206619	100.000000
2406.000000	13.165046	0.225442	100.000000
2407.000000	13.167342	0.205016	100.000000
2408.000000	13.169583	0.213546	100.000000
2409.000000	13.171800	0.203444	100.000000
2410.000000	13.173992	0.220625	100.000000
2411.000000	13.176137	0.201688	100.000000
2412.000000	13.178218	0.208603	100.000000
2413.000000	13.180245	0.211490	100.000000
2414.000000	13.182252	0.220563	100.000000
2415.000000	13.184250	0.200086	100.000000
2416.000000	13.186231	0.220797	100.000000
2417.000000	13.188178	0.193263	100.000000
2418.000000	13.190079	0.218739	100.000000
2419.000000	13.191952	0.232617	100.000000
2420.000000	13.193818	0.213944	100.000000
2421.000000	13.195669	0.215705	100.000000
2422.000000	13.197486	0.195152	100.000000
2423.000000	13.199253	0.229425	100.000000
2424.000000	13.200989	0.222390	100.000000
2425.000000	13.202721	0.219159	100.000000
2426.000000	13.204450	0.210653	100.000000
2427.000000	13.206155	0.205512	100.000000
2428.000000	13.207825	0.215991	100.000000
2429.000000	13.209470	0.201782	100.000000
2430.000000	13.211108	0.208832	100.000000
2431.000000	13.212743	0.222560	100.000000
2432.000000	13.214377	0.219403	100.000000
2433.000000	13.216003	0.217565	100.000000
2434.000000	13.217603	0.217731	100.000000
2435.000000	13.219166	0.210590	100.000000
2436.000000	13.220698	0.236413	100.000000
2437.000000	13.222218	0.234987	100.000000
2438.000000	13.223734	0.212727	100.000000
2439.000000	13.225236	0.212474	100.000000
2440.000000	13.226717	0.219309	100.000000
2441.000000	13.228185	0.233215	100.000000
2442.000000	13.229648	0.245257	100.000000
2443.000000	13.231102	0.226416	100.000000
2444.000000	13.232540	0.221396	100.000000
2445.000000	13.233957	0.212525	100.000000
2446.000000	13.235364	0.219388	100.000000
2447.000000	13.236773	0.209091	100.000000
2448.000000	13.238187	0.219669	100.000000
2449.000000	13.239592	0.226693	100.000000
2450.000000	13.240967	0.205802	100.000000
2451.000000	13.242303	0.224675	100.000000
2452.000000	13.243618	0.224807	100.000000
2453.000000	13.244936	0.226655	100.000000
2454.000000	13.246263	0.230098	100.000000
2455.000000	13.247588	0.217904	100.000000
2456.000000	13.248896	0.217875	100.000000
2457.000000	13.250179	0.228145	100.000000
2458.000000	13.251449	0.216256	100.000000
2459.000000	13.252724	0.219999	100.000000
2460.000000	13.253996	0.211364	100.000000
2461.000000	13.255243	0.226581	100.000000
2462.000000	13.256458	0.222936	100.000000
2463.000000	13.257652	0.212667	100.000000
2464.000000	13.258837	0.218051	100.000000
2465.000000	13.260020	0.221496	100.000000
2466.000000	13.261201	0.213090	100.000000
2467.000000	13.262370	0.206028	100.000000
2468.000000	13.263508	0.218099	100.000000
2469.000000	13.264606	0.219847	100.000000
2470.000000	13.265663	0.211466	100.000000
2471.000000	13.266683	0.236980	100.000000
2472.000000	13.267660	0.230172	100.000000
2473.000000	13.268578	0.212825	100.000000
2474.000000	13.269446	0.226434	100.000000
2475.000000	13.270287	0.221477	100.000000
2476.000000	13.271116	0.214709	100.000000
2477.000000	13.271912	0.200830	100.000000
2478.000000	13.272640	0.204158	100.000000
2479.000000	13.273292	0.209152	100.000000
2480.000000	13.273884	0.205807	100.000000
2481.000000	13.274416	0.207673	100.000000
2482.000000	13.274880	0.221301	100.000000
2483.000000	13.275272	0.204187	100.000000
2484.000000	13.275585	0.203660	100.000000
2485.000000	13.275836	0.212385	100.000000
2486.000000	13.276048	0.214288	100.000000
2487.000000	13.276221	0.197096	100.000000
2488.000000	13.276343	0.197311	100.000000
2489.000000	13.276399	0.205590	100.000000
2490.000000	13.276386	0.213953	100.000000
2491.000000	13.276314	0.215627	100.000000
2492.000000	13.276179	0.212381	100.000000
2493.000000	13.275986	0.197127	100.000000
2494.000000	13.275752	0.205271	100.000000
2495.000000	13.275471	0.186450	100.000000
2496.000000	13.275134	0.215488	100.000000
2497.000000	13.274753	0.203469	100.000000
2498.000000	13.274355	0.207065	100.000000
2499.000000	13.273941	0.191776	100.000000
2500.000000	13.273489	0.193313	100.000000
2501.000000	13.272985	0.215492	100.000000
2502.000000	13.272457	0.222336	100.000000
2503.000000	13.271945	0.210468	100.000000
2504.000000	13.271457	0.196738	100.000000
2505.000000	13.270974	0.203501	100.000000
2506.000000	13.270476	0.213831	100.000000
2507.000000	13.269964	0.196664	100.000000
2508.000000	13.269456	0.198368	100.000000
2509.000000	13.268953	0.201903	100.000000
2510.000000	13.268447	0.203564	100.000000
2511.000000	13.267933	0.181220	100.000000
2512.000000	13.267400	0.186279	100.000000
2513.000000	13.266858	0.193050	100.000000
2514.000000	13.266323	0.191592	100.000000
2515.000000	13.265795	0.194868	100.000000
2516.000000	13.265263	0.184876	100.000000
2517.000000	13.264713	0.180954	100.000000
2518.000000	13.264138	0.179196	100.000000
2519.000000	13.263552	0.199878	100.000000
2520.000000	13.262973	0.172632	100.000000
2521.000000	13.262392	0.193000	100.000000
2522.000000	13.261788	0.184430	100.000000
2523.000000	13.261161	0.194626	100.000000
2524.000000	13.260538	0.189472	100.000000
2525.000000	13.259939	0.198102	100.000000
2526.000000	13.259357	0.197848	100.000000
2527.000000	13.258766	0.177383	100.000000
2528.000000	13.258150	0.178980	100.000000
2529.000000	13.257523	0.197862	100.000000
2530.000000	13.256902	0.185920	100.000000
2531.000000	13.256291	0.186135	100.000000
2532.000000	13.255674	0.182601	100.000000
2533.000000	13.255037	0.187522	100.000000
2534.000000	13.254380	0.173652	100.000000
2535.000000	13.253711	0.189153	100.000000
2536.000000	13.253046	0.196017	100.000000
2537.000000	13.252399	0.185830	100.000000
2538.000000	13.251753	0.201276	100.000000
2539.000000	13.251085	0.165026	100.000000
2540.000000	13.250397	0.176754	100.000000
2541.000000	13.249720	0.173517	100.000000
2542.000000	13.249077	0.175294	100.000000
2543.000000	13.248476	0.168431	100.000000
2544.000000	13.247882	0.163374	100.000000
2545.000000	13.247257	0.166821	100.000000
2546.000000	13.246609	0.169999	100.000000
2547.000000	13.245959	0.170133	100.000000
2548.000000	13.245313	0.175063	100.000000
2549.000000	13.244682	0.182210	100.000000
2550.000000	13.244058	0.170107	100.000000
2551.000000	13.243415	0.156273	100.000000
2552.000000	13.242749	0.165000	100.000000
2553.000000	13.242084	0.169915	100.000000
2554.000000	13.241440	0.173515	100.000000
2555.000000	13.240822	0.159875	100.000000
2556.000000	13.240224	0.159851	100.000000
2557.000000	13.239628	0.152885	100.000000
2558.000000	13.239026	0.154732	100.000000
2559.000000	13.238420	0.163035	100.000000
2560.000000	13.237832	0.166393	100.000000
2561.000000	13.237279	0.159890	100.000000
2562.000000	13.236734	0.142754	100.000000
2563.000000	13.236162	0.150809	100.000000
2564.000000	13.235566	0.173349	100.000000
2565.000000	13.234976	0.164890	100.000000
2566.000000	13.234424	0.175179	100.000000
2567.000000	13.233919	0.132587	100.000000
2568.000000	13.233450	0.154909	100.000000
2569.000000	13.233001	0.157877	100.000000
2570.000000	13.232581	0.161487	100.000000
2571.000000	13.232206	0.147618	100.000000
2572.000000	13.231872	0.161831	100.000000
2573.000000	13.231570	0.161702	100.000000
2574.000000	13.231279	0.159923	100.000000
2575.000000	13.230987	0.141126	100.000000
2576.000000	13.230713	0.166630	100.000000
2577.000000	13.230488	0.147607	100.000000
2578.000000	13.230318	0.158183	100.000000
2579.000000	13.230187	0.147999	100.000000
2580.000000	13.230080	0.145997	100.000000
2581.000000	13.229989	0.147761	100.000000
2582.000000	13.229925	0.154644	100.000000
2583.000000	13.229914	0.153093	100.000000
2584.000000	13.229966	0.127282	100.000000
2585.000000	13.230071	0.156625	100.000000
2586.000000	13.230211	0.142664	100.000000
2587.000000	13.230375	0.139358	100.000000
2588.000000	13.230572	0.163264	100.000000
2589.000000	13.230801	0.153284	100.000000
2590.000000	13.231064	0.148065	100.000000
2591.000000	13.231354	0.136054	100.000000
2592.000000	13.231665	0.137740	100.000000
2593.000000	13.232001	0.149468	100.000000
2594.000000	13.232377	0.146197	100.000000
2595.000000	13.232792	0.156479	100.000000
2596.000000	13.233230	0.142976	100.000000
2597.000000	13.233668	0.117461	100.000000
2598.000000	13.234098	0.142619	100.000000
2599.000000	13.234526	0.123787	100.000000
2600.000000	13.234960	0.135972	100.000000
2601.000000	13.235400	0.139405	100.000000
2602.000000	13.235843	0.124143	100.000000
2603.000000	13.236289	0.127210	100.000000
2604.000000	13.236742	0.120390	100.000000
2605.000000	13.237206	0.142497	100.000000
2606.000000	13.237672	0.132522	100.000000
2607.000000	13.238130	0.120503	100.000000
2608.000000	13.238571	0.127331	100.000000
2609.000000	13.238988	0.127466	100.000000
2610.000000	13.239382	0.133892	100.000000
2611.000000	13.239779	0.128798	100.000000
2612.000000	13.240199	0.142933	100.000000
2613.000000	13.240614	0.130784	100.000000
2614.000000	13.240998	0.128961	100.000000
2615.000000	13.241350	0.111615	100.000000
2616.000000	13.241688	0.103184	100.000000
2617.000000	13.242036	0.135823	100.000000
2618.000000	13.242404	0.125376	100.000000
2619.000000	13.242767	0.123742	100.000000
2620.000000	13.243103	0.129104	100.000000
2621.000000	13.243429	0.123796	100.000000
2622.000000	13.243773	0.132292	100.000000
2623.000000	13.244142	0.124074	100.000000
2624.000000	13.244514	0.123961	100.000000
2625.000000	13.244868	0.118845	100.000000
2626.000000	13.245204	0.101488	100.000000
2627.000000	13.245543	0.139331	100.000000
2628.000000	13.245908	0.139373	100.000000
2629.000000	13.246307	0.132786	100.000000
2630.000000	13.246724	0.115438	100.000000
2631.000000	13.247139	0.110371	100.000000
2632.000000	13.247542	0.118587	100.000000
2633.000000	13.247958	0.117062	100.000000
2634.000000	13.248403	0.120880	100.000000
2635.000000	13.248855	0.119033	100.000000
2636.000000	13.249297	0.122451	100.000000
2637.000000	13.249731	0.104972	100.000000
2638.000000	13.250161	0.100192	100.000000
2639.000000	13.250599	0.115695	100.000000
2640.000000	13.251056	0.129303	100.000000
2641.000000	13.251519	0.105267	100.000000
2642.000000	13.251962	0.093008	100.000000
2643.000000	13.252370	0.123970	100.000000
2644.000000	13.252767	0.098283	100.000000
2645.000000	13.253158	0.107126	100.000000
2646.000000	13.253528	0.091459	100.000000
2647.000000	13.253868	0.120608	100.000000
2648.000000	13.254185	0.101765	100.000000
2649.000000	13.254483	0.117120	100.000000
2650.000000	13.254762	0.108571	100.000000
2651.000000	13.255038	0.113756	100.000000
2652.000000	13.255310	0.110465	100.000000
2653.000000	13.255570	0.117289	100.000000
2654.000000	13.255823	0.115476	100.000000
2655.000000	13.256082	0.129389	100.000000
2656.000000	13.256344	0.120894	100.000000
2657.000000	13.256598	0.110517	100.000000
2658.000000	13.256839	0.112266	100.000000
2659.000000	13.257075	0.123865	100.000000
2660.000000	13.257327	0.115653	100.000000
2661.000000	13.257610	0.109104	100.000000
2662.000000	13.257916	0.117582	100.000000
2663.000000	13.258228	0.093504	100.000000
2664.000000	13.258549	0.112172	100.000000
2665.000000	13.258910	0.117500	100.000000
2666.000000	13.259333	0.115599	100.000000
2667.000000	13.259815	0.122724	100.000000
2668.000000	13.260351	0.100538	100.000000
2669.000000	13.260921	0.105689	100.000000
2670.000000	13.261502	0.116016	100.000000
2671.000000	13.262101	0.127690	100.000000
2672.000000	13.262738	0.132935	100.000000
2673.000000	13.263419	0.126356	100.000000
2674.000000	13.264129	0.119467	100.000000
2675.000000	13.264847	0.107575	100.000000
2676.000000	13.265561	0.119488	100.000000
2677.000000	13.266274	0.109208	100.000000
2678.000000	13.267011	0.114572	100.000000
2679.000000	13.267785	0.118029	100.000000
2680.000000	13.268557	0.112821	100.000000
2681.000000	13.269297	0.112831	100.000000
2682.000000	13.270013	0.119578	100.000000
2683.000000	13.270730	0.128078	100.000000
2684.000000	13.271465	0.135082	100.000000
2685.000000	13.272215	0.130244	100.000000
2686.000000	13.272955	0.105991	100.000000
2687.000000	13.273663	0.111075	100.000000
2688.000000	13.274336	0.112723	100.000000
2689.000000	13.274994	0.136994	100.000000
2690.000000	13.275661	0.116187	100.000000
2691.000000	13.276334	0.118239	100.000000
2692.000000	13.276998	0.126516	100.000000
2693.000000	13.277659	0.131702	100.000000
2694.000000	13.278334	0.128615	100.000000
2695.000000	13.279031	0.123506	100.000000
2696.000000	13.279735	0.131773	100.000000
2697.000000	13.280430	0.118155	100.000000
2698.000000	13.281107	0.116575	100.000000
2699.000000	13.281766	0.133601	100.000000
2700.000000	13.282430	0.130155	100.000000
2701.000000	13.283115	0.130267	100.000000
2702.000000	13.283804	0.113126	100.000000
2703.000000	13.284472	0.107809	100.000000
2704.000000	13.285105	0.119675	100.000000
2705.000000	13.285722	0.109558	100.000000
2706.000000	13.286349	0.126579	100.000000
2707.000000	13.286986	0.123371	100.000000
2708.000000	13.287621	0.118084	100.000000
2709.000000	13.288240	0.109649	100.000000
2710.000000	13.288829	0.118080	100.000000
2711.000000	13.289397	0.126806	100.000000
2712.000000	13.289967	0.114835	100.000000
2713.000000	13.290535	0.108184	100.000000
2714.000000	13.291075	0.106036	100.000000
2715.000000	13.291579	0.121540	100.000000
2716.000000	13.292076	0.114501	100.000000
2717.000000	13.292598	0.120062	100.000000
2718.000000	13.293134	0.111561	100.000000
2719.000000	13.293661	0.106117	100.000000
2720.000000	13.294173	0.119988	100.000000
2721.000000	13.294665	0.104567	100.000000
2722.000000	13.295145	0.096056	100.000000
2723.000000	13.295636	0.103009	100.000000
2724.000000	13.296139	0.102930	100.000000
2725.000000	13.296640	0.104865	100.000000
2726.000000	13.297127	0.101185	100.000000
2727.000000	13.297607	0.116277	100.000000
2728.000000	13.298102	0.118314	100.000000
2729.000000	13.298611	0.094543	100.000000
2730.000000	13.299124	0.099650	100.000000
2731.000000	13.299648	0.096277	100.000000
2732.000000	13.300189	0.102851	100.000000
2733.000000	13.300760	0.104745	100.000000
2734.000000	13.301372	0.120406	100.000000
2735.000000	13.302014	0.094808	100.000000
2736.000000	13.302659	0.094712	100.000000
2737.000000	13.303293	0.111753	100.000000
2738.000000	13.303933	0.113414	100.000000
2739.000000	13.304602	0.115236	100.000000
2740.000000	13.305302	0.116779	100.000000
2741.000000	13.306020	0.091122	100.000000
2742.000000	13.306745	0.101412	100.000000
2743.000000	13.307476	0.101278	100.000000
2744.000000	13.308225	0.108441	100.000000
2745.000000	13.309000	0.110181	100.000000
2746.000000	13.309790	0.106898	100.000000
2747.000000	13.310569	0.100046	100.000000
2748.000000	13.311319	0.094661	100.000000
2749.000000	13.312044	0.101413	100.000000
2750.000000	13.312766	0.110238	100.000000
2751.000000	13.313504	0.088143	100.000000
2752.000000	13.314237	0.091224	100.000000
2753.000000	13.314928	0.077690	100.000000
2754.000000	13.315578	0.091196	100.000000
2755.000000	13.316204	0.086288	100.000000
2756.000000	13.316814	0.093302	100.000000
2757.000000	13.317394	0.086259	100.000000
2758.000000	13.317922	0.075711	100.000000
2759.000000	13.318390	0.082695	100.000000
2760.000000	13.318810	0.075933	100.000000
2761.000000	13.319190	0.072453	100.000000
2762.000000	13.319523	0.077640	100.000000
2763.000000	13.319800	0.077540	100.000000
2764.000000	13.320024	0.075768	100.000000
2765.000000	13.320188	0.057122	100.000000
2766.000000	13.320291	0.096808	100.000000
2767.000000	13.320342	0.070749	100.000000
2768.000000	13.320353	0.057045	100.000000
2769.000000	13.320321	0.069215	100.000000
2770.000000	13.320221	0.056942	100.000000
2771.000000	13.320038	0.075566	100.000000
2772.000000	13.319802	0.077432	100.000000
2773.000000	13.319537	0.070793	100.000000
2774.000000	13.319236	0.080956	100.000000
2775.000000	13.318893	0.068799	100.000000
2776.000000	13.318521	0.056768	100.000000
2777.000000	13.318126	0.060407	100.000000
2778.000000	13.317703	0.067305	100.000000
2779.000000	13.317244	0.050278	100.000000
2780.000000	13.316751	0.065564	100.000000
2781.000000	13.316227	0.053437	100.000000
2782.000000	13.315677	0.050012	100.000000
2783.000000	13.315125	0.060382	100.000000
2784.000000	13.314585	0.051790	100.000000
2785.000000	13.314046	0.056994	100.000000
2786.000000	13.313490	0.063745	100.000000
2787.000000	13.312887	0.063640	100.000000
2788.000000	13.312234	0.043138	100.000000
2789.000000	13.311574	0.055184	100.000000
2790.000000	13.310943	0.051921	100.000000
2791.000000	13.310326	0.046655	100.000000
2792.000000	13.309694	0.056849	100.000000
2793.000000	13.309041	0.056596	100.000000
2794.000000	13.308392	0.043075	100.000000
2795.000000	13.307769	0.046721	100.000000
2796.000000	13.307176	0.036352	100.000000
2797.000000	13.306591	0.031023	100.000000
2798.000000	13.305997	0.036194	100.000000
2799.000000	13.305393	0.020684	100.000000
2800.000000	13.304790	0.039862	100.000000
2801.000000	13.304203	0.039719	100.000000
2802.000000	13.303640	0.036093	100.000000
2803.000000	13.303100	0.037997	100.000000
2804.000000	13.302564	0.039579	100.000000
2805.000000	13.302029	0.059862	100.000000
2806.000000	13.301508	0.044705	100.000000
2807.000000	13.300986	0.034772	100.000000
2808.000000	13.300444	0.020817	100.000000
2809.000000	13.299878	0.022417	100.000000
2810.000000	13.299306	0.020523	100.000000
2811.000000	13.298763	0.030848	100.000000
2812.000000	13.298263	0.036087	100.000000
2813.000000	13.297779	0.026017	100.000000
2814.000000	13.297273	0.027920	100.000000
2815.000000	13.296745	0.023849	100.000000
2816.000000	13.296215	0.020497	100.000000
2817.000000	13.295696	0.042949	100.000000
2818.000000	13.295189	0.037922	100.000000
2819.000000	13.294675	0.006870	100.000000
2820.000000	13.294127	0.012008	100.000000
2821.000000	13.293552	0.013618	100.000000
2822.000000	13.292971	0.016916	100.000000
